# total density of states output by FHI-aims 
# The energy reference for this output is the vacuum level
#    Energy (eV)      DOS 
    -10.00000000    159.42690464
     -9.97997998    173.59260185
     -9.95995996    187.02640385
     -9.93993994    199.28443262
     -9.91991992    209.88308510
     -9.89989990    218.33481719
     -9.87987988    224.20005298
     -9.85985986    227.14548581
     -9.83983984    226.99576618
     -9.81981982    223.76595537
     -9.79979980    217.66627922
     -9.77977978    209.07749732
     -9.75975976    198.50253861
     -9.73973974    186.50564879
     -9.71971972    173.65245111
     -9.69969970    160.46254924
     -9.67967968    147.38146387
     -9.65965966    134.77263205
     -9.63963964    122.92499514
     -9.61961962    112.06889696
     -9.59959960    102.39309524
     -9.57957958     94.05802064
     -9.55955956     87.20363212
     -9.53953954     81.95285884
     -9.51951952     78.41276332
     -9.49949950     76.67513156
     -9.47947948     76.81686174
     -9.45945946     78.89923484
     -9.43943944     82.96460306
     -9.41941942     89.02933057
     -9.39939940     97.07256473
     -9.37937938    107.02110037
     -9.35935936    118.73106506
     -9.33933934    131.96773135
     -9.31931932    146.38597732
     -9.29929930    161.51591833
     -9.27927928    176.76035201
     -9.25925926    191.41149416
     -9.23923924    204.69257528
     -9.21921922    215.82465750
     -9.19919920    224.11153036
     -9.17917918    229.02822917
     -9.15915916    230.29459494
     -9.13913914    227.91651655
     -9.11911912    222.18426772
     -9.09909910    213.62768034
     -9.07907908    202.93835787
     -9.05905906    190.87629164
     -9.03903904    178.18002143
     -9.01901902    165.49587499
     -8.99899900    153.33468236
     -8.97897898    142.05646209
     -8.95895896    131.87745373
     -8.93893894    122.89095440
     -8.91891892    115.09374695
     -8.89889890    108.41241849
     -8.87887888    102.72700818
     -8.85885886     97.89181675
     -8.83883884     93.75412388
     -8.81881882     90.17106194
     -8.79879880     87.02369352
     -8.77877878     84.22639245
     -8.75875876     81.72967375
     -8.73873874     79.51583464
     -8.71871872     77.58869484
     -8.69869870     75.96049847
     -8.67867868     74.63983451
     -8.65865866     73.62386468
     -8.63863864     72.89645565
     -8.61861862     72.43171123
     -8.59859860     72.20071706
     -8.57857858     72.17860040
     -8.55855856     72.34935736
     -8.53853854     72.70698279
     -8.51851852     73.25274764
     -8.49849850     73.98957631
     -8.47847848     74.91516385
     -8.45845846     76.01571633
     -8.43843844     77.26205967
     -8.41841842     78.60940039
     -8.39839840     80.00128009
     -8.37837838     81.37733043
     -8.35835836     82.68349710
     -8.33833834     83.88273141
     -8.31831832     84.96399713
     -8.29829830     85.94790596
     -8.27827828     86.88824144
     -8.25825826     87.86973239
     -8.23823824     89.00330670
     -8.21821822     90.42040658
     -8.19819820     92.26768077
     -8.17817818     94.70258248
     -8.15815816     97.88931823
     -8.13813814    101.99349860
     -8.11811812    107.17306567
     -8.09809810    113.56297334
     -8.07807808    121.25202875
     -8.05805806    130.25245850
     -8.03803804    140.46596704
     -8.01801802    151.65356602
     -7.99799800    163.41900359
     -7.97797798    175.21574776
     -7.95795796    186.38416220
     -7.93793794    196.21884081
     -7.91791792    204.05756215
     -7.89789790    209.37565158
     -7.87787788    211.86558217
     -7.85785786    211.48330693
     -7.83783784    208.45008779
     -7.81781782    203.20940204
     -7.79779780    196.34946567
     -7.77777778    188.50959039
     -7.75775776    180.29081973
     -7.73773774    172.18785894
     -7.71771772    164.55185991
     -7.69769770    157.58484565
     -7.67767768    151.35917706
     -7.65765766    145.85133312
     -7.63763764    140.97893684
     -7.61761762    136.63269966
     -7.59759760    132.69923608
     -7.57757758    129.07478558
     -7.55755756    125.67245062
     -7.53753754    122.42611108
     -7.51751752    119.29307957
     -7.49749750    116.25580814
     -7.47747748    113.32164684
     -7.45745746    110.51950337
     -7.43743744    107.89327645
     -7.41741742    105.49348983
     -7.39739740    103.36968417
     -7.37737738    101.56607037
     -7.35735736    100.12155477
     -7.33733734     99.07308222
     -7.31731732     98.45935124
     -7.29729730     98.32134890
     -7.27727728     98.69728579
     -7.25725726     99.61200323
     -7.23723724    101.06369221
     -7.21721722    103.01252159
     -7.19719720    105.37566584
     -7.17717718    108.03125604
     -7.15715716    110.83082538
     -7.13713714    113.61718744
     -7.11711712    116.24345893
     -7.09709710    118.58946329
     -7.07707708    120.57350056
     -7.05705706    122.15936940
     -7.03703704    123.35954327
     -7.01701702    124.23509514
     -6.99699700    124.89171267
     -6.97697698    125.46995453
     -6.95695696    126.12786279
     -6.93693694    127.01574083
     -6.91691692    128.24599485
     -6.89689690    129.86420736
     -6.87687688    131.82946233
     -6.85685686    134.01112292
     -6.83683684    136.20553092
     -6.81681682    138.17046940
     -6.79679680    139.66966175
     -6.77677678    140.51618734
     -6.75675676    140.60384972
     -6.73673674    139.91925470
     -6.71671672    138.53327771
     -6.69669670    136.57654232
     -6.67667668    134.20741540
     -6.65665666    131.58170328
     -6.63663664    128.83088938
     -6.61661662    126.05169132
     -6.59659660    123.30569638
     -6.57657658    120.62529154
     -6.55655656    118.02160777
     -6.53653654    115.49137510
     -6.51651652    113.02148462
     -6.49649650    110.59168684
     -6.47647648    108.17664074
     -6.45645646    105.74842711
     -6.43643644    103.28000191
     -6.41641642    100.74933266
     -6.39639640     98.14343038
     -6.37637638     95.46125055
     -6.35635636     92.71445687
     -6.33633634     89.92528442
     -6.31631632     87.12121403
     -6.29629630     84.32688088
     -6.27627628     81.55449673
     -6.25625626     78.79484065
     -6.23623624     76.01126806
     -6.21621622     73.13895820
     -6.19619620     70.09070514
     -6.17617618     66.76912916
     -6.15615616     63.08359904
     -6.13613614     58.96883466
     -6.11611612     54.40146646
     -6.09609610     49.41097181
     -6.07607608     44.08239260
     -6.05605606     38.54986420
     -6.03603604     32.98188751
     -6.01601602     27.56100135
     -5.99599600     22.46163425
     -5.97597598     17.83015520
     -5.95595596     13.77045864
     -5.93593594     10.33702802
     -5.91591592      7.53572659
     -5.89589590      5.33102189
     -5.87587588      3.65732719
     -5.85585586      2.43180829
     -5.83583584      1.56630995
     -5.81581582      0.97679051
     -5.79579580      0.58953674
     -5.77577578      0.34421594
     -5.75575576      0.19435630
     -5.73573574      0.10608658
     -5.71571572      0.05595917
     -5.69569570      0.02851628
     -5.67567568      0.01403437
     -5.65565566      0.00666875
     -5.63563564      0.00305862
     -5.61561562      0.00135369
     -5.59559560      0.00057798
     -5.57557558      0.00023801
     -5.55555556      0.00009451
     -5.53553554      0.00003618
     -5.51551552      0.00001335
     -5.49549550      0.00000475
     -5.47547548      0.00000163
     -5.45545546      0.00000054
     -5.43543544      0.00000017
     -5.41541542      0.00000005
     -5.39539540      0.00000002
     -5.37537538      0.00000000
     -5.35535536      0.00000000
     -5.33533534      0.00000000
     -5.31531532      0.00000000
     -5.29529530      0.00000000
     -5.27527528      0.00000000
     -5.25525526      0.00000000
     -5.23523524      0.00000000
     -5.21521522      0.00000000
     -5.19519520      0.00000000
     -5.17517518      0.00000000
     -5.15515516      0.00000000
     -5.13513514      0.00000000
     -5.11511512      0.00000000
     -5.09509510      0.00000000
     -5.07507508      0.00000000
     -5.05505506      0.00000000
     -5.03503504      0.00000000
     -5.01501502      0.00000000
     -4.99499499      0.00000000
     -4.97497497      0.00000000
     -4.95495495      0.00000000
     -4.93493493      0.00000000
     -4.91491491      0.00000000
     -4.89489489      0.00000000
     -4.87487487      0.00000001
     -4.85485485      0.00000002
     -4.83483483      0.00000006
     -4.81481481      0.00000020
     -4.79479479      0.00000061
     -4.77477477      0.00000182
     -4.75475475      0.00000518
     -4.73473473      0.00001421
     -4.71471471      0.00003754
     -4.69469469      0.00009555
     -4.67467467      0.00023426
     -4.65465465      0.00055329
     -4.63463463      0.00125919
     -4.61461461      0.00276190
     -4.59459459      0.00583979
     -4.57457457      0.01190617
     -4.55455455      0.02341307
     -4.53453453      0.04442220
     -4.51451451      0.08135195
     -4.49449449      0.14386856
     -4.47447447      0.24583387
     -4.45445445      0.40616244
     -4.43443443      0.64940560
     -4.41441441      1.00590173
     -4.39439439      1.51143923
     -4.37437437      2.20657142
     -4.35435435      3.13595414
     -4.33433433      4.34824437
     -4.31431431      5.89707141
     -4.29429429      7.84326286
     -4.27427427     10.25787555
     -4.25425425     13.22480424
     -4.23423423     16.84113868
     -4.21421421     21.21339215
     -4.19419419     26.44849942
     -4.17417417     32.64004753
     -4.15415415     39.85213722
     -4.13413413     48.10484983
     -4.11411411     57.36575049
     -4.09409409     67.55074556
     -4.07407407     78.53506596
     -4.05405405     90.17191985
     -4.03403403    102.31356375
     -4.01401401    114.82822517
     -3.99399399    127.60702453
     -3.97397397    140.55764042
     -3.95395395    153.58517774
     -3.93393393    166.56447215
     -3.91391391    179.31091775
     -3.89389389    191.55820726
     -3.87387387    202.95091264
     -3.85385385    213.05772780
     -3.83383383    221.40775458
     -3.81381381    227.54785636
     -3.79379379    231.11437999
     -3.77377377    231.90819974
     -3.75375375    229.95902300
     -3.73373373    225.56424873
     -3.71371371    219.29018212
     -3.69369369    211.92924414
     -3.67367367    204.41519065
     -3.65365365    197.70752278
     -3.63363363    192.66388769
     -3.61361361    189.92310230
     -3.59359359    189.82015048
     -3.57357357    192.34822379
     -3.55355355    197.17320746
     -3.53353353    203.69554782
     -3.51351351    211.14586082
     -3.49349349    218.69585626
     -3.47347347    225.56575051
     -3.45345345    231.11261526
     -3.43343343    234.88954718
     -3.41341341    236.67150459
     -3.39339339    236.44893734
     -3.37337337    234.39438676
     -3.35335335    230.81002047
     -3.33333333    226.06574783
     -3.31331331    220.53818346
     -3.29329329    214.56012906
     -3.27327327    208.38819491
     -3.25325325    202.19264615
     -3.23323323    196.06893568
     -3.21321321    190.06558666
     -3.19319319    184.21934261
     -3.17317317    178.58696654
     -3.15315315    173.26434999
     -3.13313313    168.38743496
     -3.11311311    164.11474187
     -3.09309309    160.59643877
     -3.07307307    157.93838151
     -3.05305305    156.17054616
     -3.03303303    155.22777837
     -3.01301301    154.94753897
     -2.99299299    155.08538418
     -2.97297297    155.34523856
     -2.95295295    155.41873702
     -2.93293293    155.02637088
     -2.91291291    153.95303010
     -2.89289289    152.07182851
     -2.87287287    149.35266294
     -2.85285285    145.85530088
     -2.83283283    141.71009346
     -2.81281281    137.09173788
     -2.79279279    132.19219021
     -2.77277277    127.19775716
     -2.75275275    122.27312331
     -2.73273273    117.55254561
     -2.71271271    113.13658792
     -2.69269269    109.09207272
     -2.67267267    105.45333911
     -2.65265265    102.22393199
     -2.63263263     99.37889700
     -2.61261261     96.86845843
     -2.59259259     94.62383949
     -2.57257257     92.56544714
     -2.55255255     90.61285652
     -2.53253253     88.69531032
     -2.51251251     86.76106674
     -2.49249249     84.78402854
     -2.47247247     82.76663976
     -2.45245245     80.73884385
     -2.43243243     78.75365484
     -2.41241241     76.88032667
     -2.39239239     75.19610581
     -2.37237237     73.77724110
     -2.35235235     72.68959321
     -2.33233233     71.97913676
     -2.31231231     71.66300486
     -2.29229229     71.72234505
     -2.27227227     72.09876370
     -2.25225225     72.69612162
     -2.23223223     73.38868021
     -2.21221221     74.03520422
     -2.19219219     74.49706116
     -2.17217217     74.65723163
     -2.15215215     74.43693698
     -2.13213213     73.80740439
     -2.11211211     72.79577112
     -2.09209209     71.48562813
     -2.07207207     70.01357402
     -2.05205205     68.56307132
     -2.03203203     67.35602433
     -2.01201201     66.64137338
     -1.99199199     66.67928789
     -1.97197197     67.71970740
     -1.95195195     69.97511429
     -1.93193193     73.58923279
     -1.91191191     78.60532396
     -1.89189189     84.93934009
     -1.87187187     92.36395830
     -1.85185185    100.50910463
     -1.83183183    108.88281544
     -1.81181181    116.91317777
     -1.79179179    124.00798185
     -1.77177177    129.62436848
     -1.75175175    133.33728773
     -1.73173173    134.89421153
     -1.71171171    134.24510652
     -1.69169169    131.54121954
     -1.67167167    127.10281317
     -1.65165165    121.36286929
     -1.63163163    114.79895688
     -1.61161161    107.86738962
     -1.59159159    100.95196175
     -1.57157157     94.33466367
     -1.55155155     88.18952633
     -1.53153153     82.59514356
     -1.51151151     77.55808228
     -1.49149149     73.03895866
     -1.47147147     68.97498502
     -1.45145145     65.29603748
     -1.43143143     61.93432201
     -1.41141141     58.82949252
     -1.39139139     55.93131520
     -1.37137137     53.20111837
     -1.35135135     50.61213365
     -1.33133133     48.14816496
     -1.31131131     45.80014056
     -1.29129129     43.56084188
     -1.27127127     41.41897727
     -1.25125125     39.35427953
     -1.23123123     37.33519318
     -1.21121121     35.32004308
     -1.19119119     33.26163257
     -1.17117117     31.11434963
     -1.15115115     28.84229953
     -1.13113113     26.42680269
     -1.11111111     23.87174642
     -1.09109109     21.20566981
     -1.07107107     18.48001886
     -1.05105105     15.76367868
     -1.03103103     13.13459162
     -1.01101101     10.66987544
     -0.99099099      8.43620228
     -0.97097097      6.48215709
     -0.95095095      4.83383988
     -0.93093093      3.49422180
     -0.91091091      2.44592971
     -0.89089089      1.65645986
     -0.87087087      1.08448024
     -0.85085085      0.68591873
     -0.83083083      0.41887163
     -0.81081081      0.24684746
     -0.79079079      0.14032283
     -0.77077077      0.07691633
     -0.75075075      0.04064062
     -0.73073073      0.02069347
     -0.71071071      0.01015159
     -0.69069069      0.00479702
     -0.67067067      0.00218307
     -0.65065065      0.00095665
     -0.63063063      0.00040361
     -0.61061061      0.00016393
     -0.59059059      0.00006409
     -0.57057057      0.00002411
     -0.55055055      0.00000873
     -0.53053053      0.00000304
     -0.51051051      0.00000102
     -0.49049049      0.00000033
     -0.47047047      0.00000010
     -0.45045045      0.00000003
     -0.43043043      0.00000001
     -0.41041041      0.00000000
     -0.39039039      0.00000001
     -0.37037037      0.00000003
     -0.35035035      0.00000009
     -0.33033033      0.00000030
     -0.31031031      0.00000092
     -0.29029029      0.00000270
     -0.27027027      0.00000766
     -0.25025025      0.00002093
     -0.23023023      0.00005500
     -0.21021021      0.00013915
     -0.19019019      0.00033898
     -0.17017017      0.00079520
     -0.15015015      0.00179681
     -0.13013013      0.00391160
     -0.11011011      0.00820612
     -0.09009009      0.01659493
     -0.07007007      0.03235916
     -0.05005005      0.06086210
     -0.03003003      0.11045346
     -0.01001001      0.19349186
      0.01001001      0.32732472
      0.03003003      0.53496334
      0.05005005      0.84510427
      0.07007007      1.29112013
      0.09009009      1.90871596
      0.11011011      2.73215108
      0.13013013      3.78925624
      0.15015015      5.09587814
      0.17017017      6.65075681
      0.19019019      8.43205682
      0.21021021     10.39670972
      0.23023023     12.48331985
      0.25025025     14.61867108
      0.27027027     16.72699049
      0.29029029     18.74030719
      0.31031031     20.60774551
      0.33033033     22.30161102
      0.35035035     23.81872982
      0.37037037     25.17657694
      0.39039039     26.40501681
      0.41041041     27.53563312
      0.43043043     28.59132804
      0.45045045     29.57891654
      0.47047047     30.48679305
      0.49049049     31.28853658
      0.51051051     31.95180873
      0.53053053     32.45043118
      0.55055055     32.77646542
      0.57057057     32.94877615
      0.59059059     33.01513212
      0.61061061     33.04636891
      0.63063063     33.12323157
      0.65065065     33.31870716
      0.67067067     33.68029303
      0.69069069     34.21713486
      0.71071071     34.89601058
      0.73073073     35.64788279
      0.75075075     36.38380778
      0.77077077     37.01627649
      0.79079079     37.48045848
      0.81081081     37.74986097
      0.83083083     37.84257435
      0.85085085     37.81697167
      0.87087087     37.75855319
      0.89089089     37.76169839
      0.91091091     37.91088035
      0.93093093     38.26538476
      0.95095095     38.85016078
      0.97097097     39.65371289
      0.99099099     40.63244676
      1.01101101     41.71988953
      1.03103103     42.83873048
      1.05105105     43.91352561
      1.07107107     44.88201904
      1.09109109     45.70328570
      1.11111111     46.36132498
      1.13113113     46.86340496
      1.15115115     47.23338627
      1.17117117     47.50133131
      1.19119119     47.69168763
      1.21121121     47.81291434
      1.23123123     47.85133675
      1.25125125     47.77116837
      1.27127127     47.52117475
      1.29129129     47.04673998
      1.31131131     46.30462671
      1.33133133     45.27693721
      1.35135135     43.98091498
      1.37137137     42.47220583
      1.39139139     40.84070315
      1.41141141     39.19969861
      1.43143143     37.67036843
      1.45145145     36.36442988
      1.47147147     35.36805434
      1.49149149     34.72987494
      1.51151151     34.45525167
      1.53153153     34.50792582
      1.55155155     34.81891182
      1.57157157     35.30112551
      1.59159159     35.86711424
      1.61161161     36.44663751
      1.63163163     37.00095338
      1.65165165     37.53148885
      1.67167167     38.08186892
      1.69169169     38.73364085
      1.71171171     39.59704802
      1.73173173     40.79863920
      1.75175175     42.46736775
      1.77177177     44.72039623
      1.79179179     47.64941625
      1.81181181     51.30815853
      1.83183183     55.70191289
      1.85185185     60.78010735
      1.87187187     66.43305524
      1.89189189     72.49374242
      1.91191191     78.74507630
      1.93193193     84.93257529
      1.95195195     90.78220658
      1.97197197     96.02292815
      1.99199199    100.41318198
      2.01201201    103.76981079
      2.03203203    105.99656168
