#  aims_uuid : C32737CD-BA41-4EDD-A1E4-9489DAF4AB0A                                
# Angular momentum resolved density for species Moas calculated by FHI-aims
# The energy reference for this output is the vacuum level 
#      Energy (eV)         total dos     l= 0              l= 1              l= 2              l= 3              l= 4
      -10.00000000       25.67959795        1.15416882        3.60514512       20.61659216        0.26138728        0.04230456
       -9.97997998       27.48959249        1.49073086        4.02584978       21.64380052        0.28231567        0.04689566
       -9.95995996       29.24348189        1.87495671        4.46662761       22.54302224        0.30747616        0.05139916
       -9.93993994       30.90487739        2.29555419        4.90900310       23.30821557        0.33641904        0.05568547
       -9.91991992       32.41463053        2.73523906        5.32803335       23.92378530        0.36797930        0.05959352
       -9.89989990       33.69503667        3.17169676        5.69502926       24.36495696        0.40041357        0.06294012
       -9.87987988       34.66036983        3.57953856        5.98140035       24.60223388        0.43165836        0.06553869
       -9.85985986       35.23136665        3.93303405        6.16282914       24.60862816        0.45965117        0.06722413
       -9.83983984       35.35011300        4.20919616        6.22288824       24.36750822        0.48264177        0.06787861
       -9.81981982       34.99169020        4.39067532        6.15536278       23.87877449        0.49942532        0.06745228
       -9.79979980       34.16988417        4.46792659        5.96487558       23.16165522        0.50945237        0.06597441
       -9.77977978       32.93588337        4.44025335        5.66582264       22.25345157        0.51280323        0.06355258
       -9.75975976       31.37064108        4.31556457        5.27998767       21.20468037        0.51004803        0.06036044
       -9.73973974       29.57294310        4.10894561        4.83342553       20.07191619        0.50203899        0.05661678
       -9.71971972       27.64589615        3.84036278        4.35325117       18.91003018        0.48969205        0.05255998
       -9.69969970       25.68450336        3.53194921        3.86486715       17.76545323        0.47381143        0.04842234
       -9.67967968       23.76639711        3.20533611        3.38997033       16.67168806        0.45499466        0.04440794
       -9.65965966       21.94692759        2.87941679        2.94546545       15.64773560        0.43363286        0.04067688
       -9.63963964       20.25889610        2.56879987        2.54323202       14.69952945        0.40999711        0.03733765
       -9.61961962       18.71642569        2.28306346        2.19056766       13.82396532        0.38438108        0.03444817
       -9.59959960       17.32184289        2.02679331        1.89106791       13.01469970        0.35725662        0.03202534
       -9.57957958       16.07403108        1.80028706        1.64569160       12.26859549        0.32939542        0.03006150
       -9.55955956       14.97653749        1.60073555        1.45378934       11.59155043        0.30191678        0.02854539
       -9.53953954       14.04381167        1.42364727        1.31393102       11.00251005        0.27623933        0.02748400
       -9.51951952       13.30434453        1.26426590        1.22444487       10.53477410        0.25393814        0.02692152
       -9.49949950       12.80012741        1.11874758        1.18366188       10.23423264        0.23653402        0.02695130
       -9.47947948       12.58264226        0.98491858        1.18992679       10.15481689        0.22526154        0.02771845
       -9.45945946       12.70633793        0.86252055        1.24147351       10.35206132        0.22087057        0.02941198
       -9.43943944       13.22103447        0.75295526        1.33625942       10.87606202        0.22351038        0.03224739
       -9.41941942       14.16476605        0.65864040        1.47181396       11.76514378        0.23272564        0.03644226
       -9.39939940       15.55819038        0.58215842        1.64510288       13.04117627        0.24756490        0.04218791
       -9.37937938       17.40098380        0.52540559        1.85236726       14.70681886        0.26677198        0.04962012
       -9.35935936       19.66988119        0.48892518        2.08889177       16.74426540        0.28900805        0.05879080
       -9.33933934       22.31753679        0.47154738        2.34869659       19.11460650        0.31304411        0.06964221
       -9.31931932       25.27142688        0.47038070        2.62421943       21.75696830        0.33787360        0.08198484
       -9.29929930       28.43262819        0.48112398        2.90612465       24.58717698        0.36272088        0.09548170
       -9.27927928       31.67525712        0.49861333        3.18340696       27.49663871        0.38695519        0.10964293
       -9.25925926       34.84820280        0.51748909        3.44391926       30.35300714        0.40995080        0.12383651
       -9.23923924       37.78105046        0.53286350        3.67534755       33.00456752        0.43095173        0.13732015
       -9.21921922       40.29547362        0.54088390        3.86650920       35.28978561        0.44899784        0.14929707
       -9.19919920       42.22193116        0.53911253        4.00871675       37.05216015        0.46294905        0.15899269
       -9.17917918       43.41967510        0.52667777        4.09688253       38.15875895        0.47161256        0.16574331
       -9.15915916       43.79652315        0.50419045        4.13007384       38.51923137        0.47394530        0.16908219
       -9.13913914       43.32420106        0.47345830        4.11136095       38.10129491        0.46928050        0.16880640
       -9.11911912       42.04562972        0.43706599        4.04698927       36.93904447        0.45751974        0.16501025
       -9.09909910       40.07218369        0.39790885        3.94508802       35.13186821        0.43924112        0.15807749
       -9.07907908       37.57115179        0.35876804        3.81423834       32.83381663        0.41569550        0.14863327
       -9.05905906       34.74568852        0.32199317        3.66223040       30.23531047        0.38868958        0.13746490
       -9.03903904       31.81087275        0.28932207        3.49524900       27.54049743        0.36037802        0.12542623
       -9.01901902       28.96982457        0.26182843        3.31758168       24.94406975        0.33300318        0.11334154
       -8.99899900       26.39327460        0.23996133        3.13179769       22.61096643        0.30862615        0.10192299
       -8.97897898       24.20488371        0.22363234        2.93924511       20.66140531        0.28888997        0.09171098
       -8.95895896       22.47338424        0.21231604        2.74067606       19.16250479        0.27484553        0.08304182
       -8.93893894       21.21155698        0.20514886        2.53682963       18.12667686        0.26685886        0.07604278
       -8.91891892       20.38129763        0.20102809        2.32885612       17.51615728        0.26460505        0.07065109
       -8.89889890       19.90354927        0.19871980        2.11853284       17.25250171        0.26714328        0.06665164
       -8.87887888       19.67160869        0.19697969        1.90828208       17.22956187        0.27305864        0.06372641
       -8.85885886       19.56619432        0.19468020        1.70104746       17.32830742        0.28065029        0.06150896
       -8.83883884       19.47066017        0.19092714        1.50010653       17.43184671        0.28814296        0.05963683
       -8.81881882       19.28484593        0.18514617        1.30889247       17.43911311        0.29389745        0.05779673
       -8.79879880       18.93625323        0.17712400        1.13086564       17.27590739        0.29659787        0.05575833
       -8.77877878       18.38751508        0.16699938        0.96942930       16.90229597        0.29539563        0.05339480
       -8.75875876       17.63946652        0.15520895        0.82784295       16.31573028        0.28999471        0.05068961
       -8.73873874       16.72953089        0.14240052        0.70907405       15.54965750        0.28066869        0.04773013
       -8.71871872       15.72561264        0.12932962        0.61555572       14.66783032        0.26820767        0.04468932
       -8.69869870       14.71621535        0.11675531        0.54887722       13.75498187        0.25380323        0.04179772
       -8.67867868       13.79801930        0.10535029        0.50950017       12.90497145        0.23888900        0.03930839
       -8.65865866       13.06255300        0.09563839        0.49663190       12.20786205        0.22496196        0.03745870
       -8.63863864       12.58377105        0.08796954        0.50837198       11.73758371        0.21341206        0.03643375
       -8.61861862       12.40824100        0.08253559        0.54217147       11.54181365        0.20538385        0.03633645
       -8.59859860       12.54925282        0.07942107        0.59552557       11.63545273        0.20168452        0.03716892
       -8.57857858       12.98557390        0.07867183        0.66670125       11.99863165        0.20274057        0.03882860
       -8.55855856       13.66489418        0.08035535        0.75522906       12.57959497        0.20859462        0.04112018
       -8.53853854       14.51134992        0.08458506        0.86190457       13.30214938        0.21892881        0.04378211
       -8.51851852       15.43596373        0.09148885        0.98816241       14.07668680        0.23310172        0.04652395
       -8.49849850       16.34844654        0.10111979        1.13488367       14.81318154        0.25019298        0.04906856
       -8.47847848       17.16861963        0.11332986        1.30091876       15.43412088        0.26905806        0.05119208
       -8.45845846       17.83577231        0.12764739        1.48177687       15.88519139        0.28840209        0.05275457
       -8.43843844       18.31460108        0.14320790        1.66897761       16.14181830        0.30688176        0.05371552
       -8.41841842       18.59696412        0.15877999        1.85044168       16.21037422        0.32323700        0.05413124
       -8.39839840       18.69944494        0.17290362        2.01202883       16.12393614        0.33644130        0.05413505
       -8.37837838       18.65750183        0.18412328        2.13998266       15.93364536        0.34584584        0.05390470
       -8.35835836       18.51760247        0.19126385        2.22372323       15.69770614        0.35128434        0.05362492
       -8.33833834       18.32905059        0.19367656        2.25825280       15.47056030        0.35310701        0.05345393
       -8.31831832       18.13712634        0.19138290        2.24548313       15.29463250        0.35212617        0.05350165
       -8.29829830       17.97870990        0.18506948        2.19406030       15.19627766        0.34947797        0.05382449
       -8.27827828       17.88085734        0.17592861        2.11768130       15.18638172        0.34642896        0.05443675
       -8.25825826       17.86202741        0.16538492        2.03233427       15.26480058        0.34417338        0.05533428
       -8.23823824       17.93500775        0.15478227        1.95320810       15.42682467        0.34367011        0.05652260
       -8.21821822       18.11022202        0.14511643        1.89210116       15.66940720        0.34555630        0.05804093
       -8.19819820       18.39810694        0.13688289        1.85598515       15.99511344        0.35015078        0.05997468
       -8.17817818       18.80962926        0.13007292        1.84700801       16.41256211        0.35753319        0.06245303
       -8.15815816       19.35465732        0.12430525        1.86377126       16.93328535        0.36766315        0.06563231
       -8.13813814       20.03861776        0.11904197        1.90333842       17.56607304        0.38049441        0.06966993
       -8.11811812       20.85843045        0.11381596        1.96323790       18.31063736        0.39604389        0.07469534
       -8.09809810       21.79895042        0.10840054        2.04276992       19.15260392        0.41439211        0.08078393
       -8.07807808       22.83099732        0.10287532        2.14318967       20.06138130        0.43561351        0.08793752
       -8.05805806       23.91160776        0.09757888        2.26672877       20.99157088        0.45965711        0.09607212
       -8.03803804       24.98659372        0.09297460        2.41481223       21.88758184        0.48621312        0.10501194
       -8.01801802       25.99503355        0.08948122        2.58610629       22.69034901        0.51460832        0.11448871
       -7.99799800       26.87507891        0.08732666        2.77511102       23.34472438        0.54376922        0.12414763
       -7.97797798       27.57041689        0.08647206        2.97186728       23.80623524        0.57227926        0.13356305
       -7.95795796       28.03676369        0.08662791        3.16302331       24.04630840        0.59853582        0.14226824
       -7.93793794       28.24775060        0.08735427        3.33409871       24.05550894        0.62098763        0.14980104
       -7.91791792       28.19944506        0.08821205        3.47241383       23.84464755        0.63840941        0.15576221
       -7.89789790       27.91260479        0.08891855        3.56992935       23.44372639        0.65015341        0.15987709
       -7.87787788       27.43175725        0.08946181        3.62522825       22.89870797        0.65631349        0.16204572
       -7.85785786       26.82049088        0.09014154        3.64407187       22.26616162        0.65774977        0.16236608
       -7.83783784       26.15299206        0.09152531        3.63831575       21.60608250        0.65594959        0.16111891
       -7.81781782       25.50275615        0.09433004        3.62338188       20.97359247        0.65273922        0.15871253
       -7.79779780       24.93029948        0.09925563        3.61484662       20.41070002        0.64990013        0.15559708
       -7.77777778       24.47229846        0.10680711        3.62492835       19.93962122        0.64877362        0.15216817
       -7.75775776       24.13462741        0.11714249        3.65969483       19.55915698        0.64994822        0.14868489
       -7.73773774       23.89114590        0.12997813        3.71764823       19.24518432        0.65311046        0.14522475
       -7.71771772       23.68888310        0.14457233        3.79002254       18.95549725        0.65710247        0.14168852
       -7.69769770       23.45876244        0.15979365        3.86271922       18.63821734        0.66017837        0.13785386
       -7.67767768       23.12961695        0.17426448        3.91941295       18.24207735        0.66039961        0.13346255
       -7.65765766       22.64238344        0.18655525        3.94508211       17.72635722        0.65607252        0.12831634
       -7.63763764       21.96131822        0.19539330        3.92913644       17.06831130        0.64612226        0.12235493
       -7.61761762       21.07988559        0.19984645        3.86744864       16.26657726        0.63031746        0.11569577
       -7.59759760       20.02039566        0.19944616        3.76290737       15.34011119        0.60930381        0.10862713
       -7.57757758       18.82807153        0.19422914        3.62450023       14.32332591        0.58445682        0.10155942
       -7.55755756       17.56152261        0.18469574        3.46528986       13.25897916        0.55760806        0.09494979
       -7.53753754       16.28222970        0.17170193        3.29986441       12.19072157        0.53072185        0.08921994
       -7.51751752       15.04548709        0.15631489        3.14187888       11.15700965        0.50559771        0.08468595
       -7.49749750       13.89444005        0.13966487        3.00217122       10.18743934        0.48365170        0.08151292
       -7.47747748       12.85773636        0.12281943        2.88770490        9.30171278        0.46579927        0.07969998
       -7.45745746       11.95026970        0.10669426        2.80134540        8.51070143        0.45243455        0.07909407
       -7.43743744       11.17584167        0.09200161        2.74229934        7.81863028        0.44348451        0.07942593
       -7.41741742       10.53044082        0.07922959        2.70696745        7.22537129        0.43851295        0.08035955
       -7.39739740       10.00516172        0.06864325        2.68998029        6.72813877        0.43685360        0.08154582
       -7.37737738        9.58834198        0.06030105        2.68525608        6.32235454        0.43775777        0.08267254
       -7.35735736        9.26701072        0.05408442        2.68698983        6.00188816        0.44054355        0.08350476
       -7.33733734        9.02801239        0.04974031        2.69051624        5.75911571        0.44472891        0.08391123
       -7.31731732        8.85913669        0.04693588        2.69297800        5.58522382        0.45012436        0.08387462
       -7.29729730        8.75034317        0.04532120        2.69370229        5.47097659        0.45685829        0.08348480
       -7.27727728        8.69490403        0.04459234        2.69418225        5.40789799        0.46531568        0.08291578
       -7.25725726        8.69017387        0.04454614        2.69760691        5.38964060        0.47599090        0.08238933
       -7.23723724        8.73779760        0.04511937        2.70798612        5.41328027        0.48928170        0.08213014
       -7.21721722        8.84341406        0.04640817        2.72904036        5.48036983        0.50527635        0.08231935
       -7.19719720        9.01613910        0.04866680        2.76311754        5.59770380        0.52359617        0.08305479
       -7.17717718        9.26816119        0.05228623        2.81041043        5.77779300        0.54334635        0.08432517
       -7.15715716        9.61460736        0.05775274        2.86866524        6.03898746        0.56319814        0.08600378
       -7.13713714       10.07353482        0.06558598        2.93342240        6.40507760        0.58158606        0.08786278
       -7.11711712       10.66567079        0.07625804        2.99867433        6.90416473        0.59696826        0.08960543
       -7.09709710       11.41353343        0.09010027        3.05772662        7.56671595        0.60808095        0.09090964
       -7.07707708       12.33985886        0.10721275        3.10404477        8.42300169        0.61412496        0.09147468
       -7.05705706       13.46568389        0.12739858        3.13194863        9.50042298        0.61485054        0.09106316
       -7.03703704       14.80871783        0.15014699        3.13713060       10.82136525        0.61054262        0.08953237
       -7.01701702       16.38253565        0.17468154        3.11705745       12.40200738        0.60193743        0.08685185
       -6.99699700       18.19658588        0.20007294        3.07132376       14.25197178        0.59011122        0.08310618
       -6.97697698       20.25624928        0.22539428        3.00195667       16.37404366        0.57637070        0.07848398
       -6.95695696       22.56163126        0.24987819        2.91357145       18.76277500        0.56215184        0.07325479
       -6.93693694       25.10384758        0.27302869        2.81321140       21.40095870        0.54891269        0.06773610
