#  aims_uuid : C32737CD-BA41-4EDD-A1E4-9489DAF4AB0A                                
# Angular momentum resolved density for species Sas calculated by FHI-aims
# The energy reference for this output is the vacuum level 
#      Energy (eV)         total dos     l= 0              l= 1              l= 2              l= 3              l= 4
      -10.00000000       50.99083619        4.03420978       43.79297996        2.81050482        0.32428895        0.02885269
       -9.97997998       55.36621572        4.48518952       47.42903407        3.06977722        0.35127230        0.03094261
       -9.95995996       59.80791601        4.92508235       51.15275980        3.31917373        0.37726166        0.03363847
       -9.93993994       64.18826060        5.34046725       54.85803002        3.55110521        0.40174692        0.03691120
       -9.91991992       68.31745885        5.71536993       58.38139983        3.75605679        0.42400262        0.04062968
       -9.89989990       71.96146726        6.03221831       61.51826370        3.92329614        0.44311508        0.04457403
       -9.87987988       74.87345355        6.27354812       64.05122737        4.04213183        0.45807881        0.04846742
       -9.85985986       76.83199609        6.42416235       65.78440349        4.10346749        0.46794278        0.05201998
       -9.83983984       77.67723844        6.47330133       66.57568650        4.10130373        0.47197197        0.05497490
       -9.81981982       77.33682765        6.41636069       66.35968534        4.03384946        0.46978560        0.05714656
       -9.79979980       75.83627747        6.25579898       65.15658763        3.90400784        0.46144038        0.05844263
       -9.77977978       73.29241029        6.00106044       63.06588395        3.71915737        0.44744198        0.05886656
       -9.75975976       69.89248274        5.66754210       60.24744945        3.49030379        0.42868569        0.05850171
       -9.73973974       65.86443451        5.27480819       56.89500939        3.23079222        0.40634168        0.05748302
       -9.71971972       61.44488554        4.84436946       53.20802129        2.95482112        0.38170947        0.05596420
       -9.69969970       56.85108022        4.39739533       49.36753144        2.67599682        0.35606794        0.05408869
       -9.67967968       52.26137036        3.95271483       45.52001358        2.40612658        0.33054486        0.05197051
       -9.65965966       47.80660703        3.52539550       41.77111088        2.15438883        0.30602388        0.04968794
       -9.63963964       43.57247318        3.12607511       38.18905414        1.92695461        0.28309973        0.04728960
       -9.61961962       39.61070237        2.76107247       34.81566714        1.72706784        0.26208505        0.04480985
       -9.59959960       35.95556366        2.43314754       31.68153546        1.55552740        0.24306429        0.04228897
       -9.57957958       32.64117286        2.14265318       28.82128859        1.41145544        0.22598262        0.03979304
       -9.55955956       29.71528212        1.88875801       26.28514917        1.29319406        0.21075187        0.03742901
       -9.53953954       27.24623853        1.67044059       24.14393770        1.19915629        0.19735246        0.03535149
       -9.51951952       25.32160821        1.48705616       22.48640511        1.12847617        0.18591154        0.03375923
       -9.49949950       24.03912118        1.33842338       21.40971997        1.08135270        0.17674382        0.03288131
       -9.47947948       23.49254230        1.22452294       21.00566009        1.05905409        0.17035063        0.03295455
       -9.45945946       23.75626492        1.14499685       21.34606845        1.06362128        0.16738250        0.03419584
       -9.43943944       24.87250389        1.09865959       22.47112759        1.09736530        0.16857752        0.03677389
       -9.41941942       26.84390398        1.08318410       24.38296953        1.16227581        0.17468915        0.04078539
       -9.39939940       29.63250691        1.09503182       27.04537531        1.25944735        0.18641293        0.04623949
       -9.37937938       33.16393998        1.12959985       30.38838012        1.38859364        0.20431378        0.05305260
       -9.35935936       37.33410922        1.18149386       34.31513547        1.54767927        0.22874802        0.06105259
       -9.33933934       42.01517935        1.24482448       38.70792146        1.73267166        0.25977208        0.06998968
       -9.31931932       47.05843619        1.31346089       43.43097354        1.93741684        0.29703524        0.07954968
       -9.29929930       52.29351114        1.38123579       48.32957383        2.15366750        0.33966737        0.08936666
       -9.27927928       57.52572167        1.44214664       53.22703053        2.37132216        0.38618849        0.09903386
       -9.25925926       62.53503534        1.49061376       57.92288300        2.57894471        0.43447906        0.10811481
       -9.23923924       67.08060696        1.52182751       62.19616772        2.76460293        0.48185013        0.11615867
       -9.21921922       70.91362748        1.53215820       65.81651867        2.91698986        0.52523695        0.12272379
       -9.19919920       73.79865783        1.51954260       68.56349912        3.02669449        0.56151049        0.12741114
       -9.17917918       75.54056569        1.48373012       70.25165993        3.08740374        0.58786655        0.12990536
       -9.15915916       76.01174887        1.42628991       70.75643208        3.09678666        0.60222323        0.13001699
       -9.13913914       75.17343535        1.35034334       70.03497592        3.05685400        0.60354538        0.12771671
       -9.11911912       73.08584785        1.26007109       68.13690333        2.97369576        0.59202486        0.12315281
       -9.09909910       69.90456241        1.16011598       65.20208408        2.85664070        0.56907576        0.11664589
       -9.07907908       65.86358937        1.05503129       61.44574531        2.71700846        0.53714444        0.10865987
       -9.05905906       61.24851642        0.94889813       57.13379420        2.56669715        0.49937339        0.09975354
       -9.03903904       56.36469338        0.84516558       52.55297191        2.41685074        0.45918461        0.09052054
       -9.01901902       51.50564435        0.74668253       47.98078582        2.27679223        0.41985626        0.08152751
       -8.99899900       46.92593407        0.65582608       43.65937024        2.15332050        0.38415799        0.07325926
       -8.97897898       42.82117279        0.57461026       39.77601098        2.05038371        0.35409027        0.06607758
       -8.95895896       39.31630611        0.50468785       36.45158847        1.96908309        0.33074930        0.06019740
       -8.93893894       36.46216968        0.44722117       33.73701552        1.90793452        0.31431728        0.05568120
       -8.91891892       34.23956781        0.40266671       31.61697370        1.86331543        0.30416166        0.05245031
       -8.89889890       32.56973242        0.37056756       30.01979914        1.83003907        0.29901643        0.05031022
       -8.87887888       31.32975470        0.34945687       28.83208342        1.80201489        0.29721375        0.04898577
       -8.85885886       30.37133980        0.33694554       27.91633447        1.77296418        0.29693382        0.04816180
       -8.83883884       29.54099892        0.33000967       27.12986181        1.73715905        0.29644401        0.04752437
       -8.81881882       28.69961749        0.32542950       26.34294617        1.69013958        0.29430397        0.04679827
       -8.79879880       27.73930089        0.32028377       25.45437835        1.62934151        0.28952016        0.04577711
       -8.77877878       26.59557246        0.31238520       24.40265701        1.55454701        0.28163987        0.04434337
       -8.75875876       25.25343754        0.30055903       23.17155580        1.46806577        0.27078007        0.04247687
       -8.73873874       23.74655141        0.28471020       21.78942313        1.37457595        0.25759089        0.04025123
       -8.71871872       22.14969338        0.26568061       20.32242826        1.28060713        0.24315834        0.03781904
       -8.69869870       20.56581759        0.24495009       18.86290375        1.19372022        0.22885579        0.03538775
       -8.67867868       19.10989270        0.22426744       17.51476401        1.12151161        0.21616070        0.03318894
       -8.65865866       17.89229794        0.20530447       16.37847386        1.07061551        0.20645888        0.03144521
       -8.63863864       17.00451125        0.18940685       15.53802041        1.04588277        0.20086261        0.03033862
       -8.61861862       16.50916622        0.17747929       15.05176263        1.04987091        0.20006823        0.02998517
       -8.59859860       16.43542945        0.17000060       14.94803320        1.08270349        0.20427350        0.03041867
       -8.57857858       16.77938117        0.16712888       15.22523251        1.14226864        0.21316486        0.03158628
       -8.55855856       17.50805082        0.16883753       15.85522822        1.22465540        0.22597335        0.03335632
       -8.53853854       18.56526636        0.17502262       16.78842872        1.32469092        0.24158682        0.03553727
       -8.51851852       19.87763780        0.18554027       17.95904279        1.43645105        0.25869853        0.03790517
       -8.49849850       21.35970122        0.20016403       19.28967062        1.55366320        0.27596796        0.04023541
       -8.47847848       22.91820143        0.21848592       20.69522326        1.66998730        0.29217093        0.04233401
       -8.45845846       24.45630451        0.23981236       22.08688680        1.77922265        0.30631943        0.04406326
       -8.43843844       25.87886479        0.26311598       23.37712835        1.87552435        0.31773864        0.04535748
       -8.41841842       27.09955299        0.28709273       24.48643000        1.95370763        0.32609620        0.04622644
       -8.39839840       28.04975532        0.31034137       25.35160882        2.00967254        0.33138642        0.04674617
       -8.37837838       28.68799736        0.33163927       25.93453133        2.04090860        0.33387857        0.04703959
       -8.35835836       29.00770299        0.35024923       26.22919384        2.04696591        0.33404235        0.04725166
       -8.33833834       29.04082512        0.36617244       26.26492528        2.02973766        0.33246519        0.04752455
       -8.31831832       28.85552592        0.38027104       26.10409196        1.99341005        0.32977464        0.04797824
       -8.29829830       28.54754104        0.39421969       25.83403815        1.94400653        0.32657639        0.04870028
       -8.27827828       28.22668310        0.41029671       25.55466185        1.88856501        0.32341384        0.04974568
       -8.25825826       28.00147963        0.43107216       25.36440877        1.83410266        0.32075070        0.05114535
       -8.23823824       27.96560872        0.45907814       25.34803801        1.78660060        0.31897311        0.05291886
       -8.21821822       28.18930896        0.49654487       25.56902614        1.75024686        0.31840424        0.05508685
       -8.19819820       28.71743707        0.54525948       26.06807239        1.72710542        0.31932167        0.05767811
       -8.17817818       29.57382920        0.60656288       26.86731720        1.71725169        0.32196840        0.06072903
       -8.15815816       30.76974802        0.68145733       27.97818859        1.71927669        0.32655038        0.06427502
       -8.13813814       32.31303203        0.77076384       29.40975364        1.73095976        0.33321833        0.06833647
       -8.11811812       34.21440321        0.87524889       31.17433577        1.74987916        0.34203616        0.07290323
       -8.09809810       36.48822276        0.99563803       33.28794078        1.77377960        0.35294279        0.07792156
       -8.07807808       39.14656242        1.13245041       35.76448552        1.80062389        0.36571579        0.08328680
       -8.05805806       42.18740856        1.28562854       38.60460740        1.82838387        0.37994602        0.08884273
       -8.03803804       45.57972698        1.45399907       41.78158207        1.85472700        0.39503126        0.09438758
       -8.01801802       49.24957395        1.63467621       45.22822081        1.87679557        0.41019574        0.09968561
       -7.99799800       53.07204651        1.82258644       48.82919196        1.89124352        0.42454081        0.10448378
       -7.97797798       56.87329973        2.01032394       52.42271068        1.89460343        0.43712887        0.10853281
       -7.95795796       60.44499464        2.18851366       55.81383702        1.88393458        0.44709688        0.11161251
       -7.93793794       63.57058579        2.34675337       58.79889207        1.85759379        0.45378731        0.11355925
       -7.91791792       66.05942153        2.47504636       61.19730008        1.81590822        0.45687461        0.11429226
       -7.89789790       67.78164662        2.56546472       62.88435528        1.76153568        0.45645824        0.11383271
       -7.87787788       68.69536954        2.61365839       63.81693931        1.69936934        0.45309288        0.11230962
       -7.85785786       68.85822929        2.61979990       64.04478876        1.63595801        0.44773489        0.10994772
       -7.83783784       68.41853578        2.58865320       63.70271040        1.57853480        0.44160122        0.10703617
       -7.81781782       67.58600884        2.52866399       62.98366345        1.53384098        0.43595850        0.10388192
       -7.79779780       66.58759743        2.45023363       62.09775149        1.50697545        0.43188046        0.10075639
       -7.77777778       65.61836238        2.36357882       61.22642294        1.50048952        0.43002438        0.09784672
       -7.75775776       64.79949212        2.27671636       60.48318252        1.51389156        0.43047807        0.09522361
       -7.73773774       64.15431782        2.19409319       59.89102853        1.54364565        0.43271661        0.09283384
       -7.71771772       63.60878758        2.11620558       59.38271714        1.58366000        0.43568420        0.09052065
       -7.69769770       63.01638001        2.04026891       58.82387758        1.62617828        0.43798783        0.08806742
       -7.67767768       62.20079184        1.96169986       58.05275575        1.66291966        0.43816178        0.08525480
       -7.65765766       61.00498693        1.87595503       56.92589896        1.68627085        0.43494485        0.08191724
       -7.63763764       59.33383623        1.78019891       55.35781856        1.69032440        0.42750867        0.07798569
       -7.61761762       57.17995843        1.67436640       53.34490698        1.67158885        0.41558947        0.07350674
       -7.59759760       54.62756707        1.56139589       50.96876831        1.62926649        0.39950104        0.06863534
       -7.57757758       51.83532328        1.44665953       48.37993248        1.56508887        0.38003782        0.06360458
       -7.55755756       49.00439462        1.33682432       45.76779032        1.48279563        0.35830284        0.05868151
       -7.53753754       46.34070484        1.23848630       43.32517870        1.38740972        0.33550997        0.05412016
       -7.51751752       44.02030388        1.15691789       41.21597319        1.28448296        0.31280801        0.05012182
       -7.49749750       42.16445899        1.09518068       39.55185340        1.17945572        0.29115962        0.04680958
       -7.47747748       40.82763025        1.05372940       38.38118691        1.07720887        0.27128559        0.04421947
       -7.45745746       39.99817428        1.03050920       37.68988042        0.98181301        0.25366469        0.04230696
       -7.43743744       39.60927319        1.02145672       37.41185876        0.89642704        0.23856606        0.04096462
       -7.41741742       39.55649987        1.02126436       37.44581769        0.82328156        0.22609020        0.04004606
       -7.39739740       39.71840070        1.02425230       37.67485312        0.76370093        0.21620288        0.03939146
       -7.37737738       39.97702172        1.02520429       37.98605633        0.71815163        0.20875828        0.03885119
       -7.35735736       40.23594920        1.02005173       38.28774169        0.68633225        0.20351841        0.03830511
       -7.33733734       40.43390387        1.00632705       38.52239672        0.66732500        0.20017860        0.03767649
       -7.31731732       40.55223272        0.98334736       38.67373249        0.65980846        0.19840501        0.03693940
       -7.29729730       40.61501905        0.95212775       38.76658895        0.66230110        0.19788191        0.03611934
       -7.27727728       40.68127495        0.91505826       38.85918728        0.67338330        0.19835904        0.03528708
       -7.25725726       40.82993023        0.87540679       39.02844155        0.69184761        0.19968779        0.03454649
       -7.23723724       41.13992850        0.83673062       39.35058540        0.71675441        0.20183989        0.03401818
       -7.21721722       41.66921893        0.80228954       39.88078890        0.74740861        0.20490986        0.03382202
       -7.19719720       42.43718823        0.77455134       40.63616161        0.78330353        0.20910991        0.03406185
       -7.17717718       43.41465072        0.75486360       41.58612266        0.82408293        0.21476610        0.03481544
       -7.15715716       44.52384177        0.74333639       42.65250687        0.86954831        0.22231868        0.03613152
       -7.13713714       45.64837951        0.73894189       43.71938399        0.91969944        0.23232056        0.03803363
       -7.11711712       46.65067470        0.73979826       44.65016221        0.97476408        0.24542094        0.04052921
       -7.09709710       47.39262771        0.74357453       45.30794118        1.03516790        0.26232292        0.04362118
       -7.07707708       47.75517720        0.74793718       45.57478183        1.10142446        0.28371433        0.04731940
       -7.05705706       47.65332033        0.75096022       45.36655128        1.17397330        0.31018522        0.05165030
       -7.03703704       47.04503425        0.75143480       44.64174508        1.25303445        0.34215655        0.05666337
       -7.01701702       45.93426735        0.74903674       43.40440099        1.33855307        0.37984300        0.06243355
       -6.99699700       44.36915534        0.74433310       41.70223827        1.43026792        0.42325828        0.06905776
       -6.97697698       42.43664389        0.73863023       39.62125722        1.52786547        0.47224799        0.07664297
       -6.95695696       40.25409461        0.73368469       37.27749729        1.63111467        0.52651476        0.08528321
       -6.93693694       37.95786845        0.73131728       34.80607684        1.73985373        0.58559562        0.09502499
