#  aims_uuid : A391CB3C-1CEF-4591-A2B9-296226787F70                                
# Angular momentum resolved density for species Has calculated by FHI-aims
# The energy reference for this output is the vacuum level 
#      Energy (eV)         total dos     l= 0              l= 1              l= 2
      -10.00000000        0.00455180        0.00192798        0.00200022        0.00062360
       -9.97997998        0.00448179        0.00214508        0.00177567        0.00056104
       -9.95995996        0.00448317        0.00238246        0.00159588        0.00050483
       -9.93993994        0.00455556        0.00263742        0.00146163        0.00045650
       -9.91991992        0.00469474        0.00290631        0.00137141        0.00041702
       -9.89989990        0.00489283        0.00318451        0.00132167        0.00038665
       -9.87987988        0.00513867        0.00346640        0.00130720        0.00036506
       -9.85985986        0.00541877        0.00374554        0.00132180        0.00035142
       -9.83983984        0.00571881        0.00401527        0.00135897        0.00034458
       -9.81981982        0.00602591        0.00427004        0.00141255        0.00034332
       -9.79979980        0.00633137        0.00450752        0.00147733        0.00034652
       -9.77977978        0.00663347        0.00473082        0.00154941        0.00035324
       -9.75975976        0.00693931        0.00495024        0.00162629        0.00036278
       -9.73973974        0.00726497        0.00518355        0.00170677        0.00037465
       -9.71971972        0.00763305        0.00545402        0.00179060        0.00038844
       -9.69969970        0.00806764        0.00578594        0.00187797        0.00040373
       -9.67967968        0.00858744        0.00619841        0.00196900        0.00042003
       -9.65965966        0.00919855        0.00669861        0.00206323        0.00043671
       -9.63963964        0.00988872        0.00727648        0.00215926        0.00045297
       -9.61961962        0.01062503        0.00790260        0.00225451        0.00046791
       -9.59959960        0.01135601        0.00853024        0.00234522        0.00048054
       -9.57957958        0.01201814        0.00910169        0.00242659        0.00048986
       -9.55955956        0.01254561        0.00955744        0.00249325        0.00049491
       -9.53953954        0.01288116        0.00984635        0.00253994        0.00049486
       -9.51951952        0.01298577        0.00993429        0.00256239        0.00048910
       -9.49949950        0.01284501        0.00980944        0.00255825        0.00047733
       -9.47947948        0.01247103        0.00948340        0.00252791        0.00045972
       -9.45945946        0.01189996        0.00898820        0.00247483        0.00043693
       -9.43943944        0.01118571        0.00837029        0.00240533        0.00041010
       -9.41941942        0.01039148        0.00768304        0.00232767        0.00038077
       -9.39939940        0.00958081        0.00697938        0.00225073        0.00035070
       -9.37937938        0.00880958        0.00630560        0.00218238        0.00032159
       -9.35935936        0.00812003        0.00569708        0.00212805        0.00029490
       -9.33933934        0.00753752        0.00517607        0.00208982        0.00027164
       -9.31931932        0.00707004        0.00475153        0.00206621        0.00025230
       -9.29929930        0.00671013        0.00442054        0.00205270        0.00023689
       -9.27927928        0.00643889        0.00417104        0.00204284        0.00022501
       -9.25925926        0.00623104        0.00398544        0.00202961        0.00021599
       -9.23923924        0.00606060        0.00384476        0.00200674        0.00020911
       -9.21921922        0.00590608        0.00373269        0.00196973        0.00020366
       -9.19919920        0.00575470        0.00363925        0.00191636        0.00019909
       -9.17917918        0.00560498        0.00356329        0.00184668        0.00019501
       -9.15915916        0.00546727        0.00351351        0.00176257        0.00019119
       -9.13913914        0.00536206        0.00350742        0.00166713        0.00018752
       -9.11911912        0.00531631        0.00356844        0.00156391        0.00018396
       -9.09909910        0.00535812        0.00372117        0.00145642        0.00018053
       -9.07907908        0.00551071        0.00398580        0.00134769        0.00017722
       -9.05905906        0.00578676        0.00437255        0.00124018        0.00017403
       -9.03903904        0.00618416        0.00487743        0.00113578        0.00017095
       -9.01901902        0.00668422        0.00548036        0.00103593        0.00016793
       -8.99899900        0.00725317        0.00614644        0.00094178        0.00016495
       -8.97897898        0.00784676        0.00683054        0.00085422        0.00016199
       -8.95895896        0.00841756        0.00748457        0.00077395        0.00015904
       -8.93893894        0.00892358        0.00806601        0.00070141        0.00015615
       -8.91891892        0.00933629        0.00854605        0.00063682        0.00015342
       -8.89889890        0.00964623        0.00891508        0.00058012        0.00015103
       -8.87887888        0.00986458        0.00918420        0.00053113        0.00014925
       -8.85885886        0.01002011        0.00938201        0.00048961        0.00014848
       -8.83883884        0.01015186        0.00954717        0.00045545        0.00014924
       -8.81881882        0.01029932        0.00971843        0.00042880        0.00015209
       -8.79879880        0.01049235        0.00992467        0.00041007        0.00015761
       -8.77877878        0.01074342        0.01017731        0.00039987        0.00016624
       -8.75875876        0.01104398        0.01046704        0.00039876        0.00017818
       -8.73873874        0.01136582        0.01076554        0.00040700        0.00019328
       -8.71871872        0.01166674        0.01103147        0.00042435        0.00021092
       -8.69869870        0.01189893        0.01121881        0.00045000        0.00023011
       -8.67867868        0.01201781        0.01128557        0.00048267        0.00024957
       -8.65865866        0.01198948        0.01120066        0.00052092        0.00026790
       -8.63863864        0.01179537        0.01094800        0.00056347        0.00028390
       -8.61861862        0.01143376        0.01052757        0.00060949        0.00029671
       -8.59859860        0.01091881        0.00995421        0.00065861        0.00030599
       -8.57857858        0.01027753        0.00925483        0.00071074        0.00031196
       -8.55855856        0.00954588        0.00846502        0.00076563        0.00031524
       -8.53853854        0.00876430        0.00762522        0.00082239        0.00031668
       -8.51851852        0.00797315        0.00677686        0.00087920        0.00031708
       -8.49849850        0.00720858        0.00595829        0.00093324        0.00031704
       -8.47847848        0.00649892        0.00520107        0.00098109        0.00031677
       -8.45845846        0.00586262        0.00452704        0.00101943        0.00031615
       -8.43843844        0.00530772        0.00394697        0.00104589        0.00031485
       -8.41841842        0.00483331        0.00346098        0.00105980        0.00031252
       -8.39839840        0.00443244        0.00306088        0.00106256        0.00030901
       -8.37837838        0.00409568        0.00273366        0.00105755        0.00030447
       -8.35835836        0.00381425        0.00246519        0.00104962        0.00029944
       -8.33833834        0.00358200        0.00224315        0.00104413        0.00029472
       -8.31831832        0.00339571        0.00205857        0.00104593        0.00029121
       -8.29829830        0.00325405        0.00190583        0.00105856        0.00028967
       -8.27827828        0.00315576        0.00178157        0.00108368        0.00029051
       -8.25825826        0.00309803        0.00168322        0.00112112        0.00029369
       -8.23823824        0.00307571        0.00160781        0.00116923        0.00029866
       -8.21821822        0.00308166        0.00155153        0.00122560        0.00030453
       -8.19819820        0.00310807        0.00151006        0.00128784        0.00031018
       -8.17817818        0.00314805        0.00147937        0.00135412        0.00031456
       -8.15815816        0.00319710        0.00145670        0.00142354        0.00031686
       -8.13813814        0.00325364        0.00144111        0.00149588        0.00031664
       -8.11811812        0.00331869        0.00143353        0.00157124        0.00031392
       -8.09809810        0.00339469        0.00143636        0.00164926        0.00030908
       -8.07807808        0.00348383        0.00145260        0.00172850        0.00030273
       -8.05805806        0.00358656        0.00148493        0.00180604        0.00029559
       -8.03803804        0.00370054        0.00153477        0.00187745        0.00028832
       -8.01801802        0.00382032        0.00160165        0.00193726        0.00028141
       -7.99799800        0.00393789        0.00168292        0.00197981        0.00027516
       -7.97797798        0.00404374        0.00177384        0.00200024        0.00026967
       -7.95795796        0.00412850        0.00186811        0.00199549        0.00026490
       -7.93793794        0.00418444        0.00195880        0.00196492        0.00026073
       -7.91791792        0.00420696        0.00203946        0.00191049        0.00025701
       -7.89789790        0.00419536        0.00210535        0.00183643        0.00025358
       -7.87787788        0.00415318        0.00215439        0.00174849        0.00025031
       -7.85785786        0.00408771        0.00218779        0.00165287        0.00024705
       -7.83783784        0.00400895        0.00221000        0.00155529        0.00024366
       -7.81781782        0.00392823        0.00222811        0.00146013        0.00023999
       -7.79779780        0.00385662        0.00225067        0.00137009        0.00023586
       -7.77777778        0.00380356        0.00228626        0.00128616        0.00023114
       -7.75775776        0.00377582        0.00234204        0.00120808        0.00022570
       -7.73773774        0.00377724        0.00242276        0.00113492        0.00021956
       -7.71771772        0.00380898        0.00253036        0.00106579        0.00021283
       -7.69769770        0.00387050        0.00266441        0.00100033        0.00020577
       -7.67767768        0.00396083        0.00282313        0.00093895        0.00019875
       -7.65765766        0.00407978        0.00300471        0.00088282        0.00019225
       -7.63763764        0.00422855        0.00320832        0.00083350        0.00018672
       -7.61761762        0.00440954        0.00343447        0.00079249        0.00018258
       -7.59759760        0.00462514        0.00368430        0.00076079        0.00018005
       -7.57757758        0.00487587        0.00395819        0.00073853        0.00017915
       -7.55755756        0.00515853        0.00425401        0.00072486        0.00017966
       -7.53753754        0.00546513        0.00456593        0.00071806        0.00018115
       -7.51751752        0.00578333        0.00488444        0.00071584        0.00018305
       -7.49749750        0.00609843        0.00519785        0.00071581        0.00018477
       -7.47747748        0.00639666        0.00549501        0.00071587        0.00018578
       -7.45745746        0.00666868        0.00576836        0.00071457        0.00018576
       -7.43743744        0.00691194        0.00601604        0.00071128        0.00018462
       -7.41741742        0.00713085        0.00624219        0.00070615        0.00018251
       -7.39739740        0.00733435        0.00645471        0.00069985        0.00017979
       -7.37737738        0.00753135        0.00666120        0.00069324        0.00017691
       -7.35735736        0.00772545        0.00686416        0.00068698        0.00017430
       -7.33733734        0.00791087        0.00705731        0.00068129        0.00017227
       -7.31731732        0.00807105        0.00722437        0.00067577        0.00017092
       -7.29729730        0.00818100        0.00734132        0.00066956        0.00017013
       -7.27727728        0.00821261        0.00738152        0.00066150        0.00016959
       -7.25725726        0.00814174        0.00732230        0.00065054        0.00016889
       -7.23723724        0.00795465        0.00715102        0.00063605        0.00016758
       -7.21721722        0.00765197        0.00686867        0.00061801        0.00016529
       -7.19719720        0.00724898        0.00649001        0.00059716        0.00016181
       -7.17717718        0.00677222        0.00604034        0.00057481        0.00015707
       -7.15715716        0.00625379        0.00554993        0.00055265        0.00015121
       -7.13713714        0.00572507        0.00504816        0.00053246        0.00014445
       -7.11711712        0.00521168        0.00455875        0.00051584        0.00013708
       -7.09709710        0.00473087        0.00409744        0.00050400        0.00012942
       -7.07707708        0.00429157        0.00367214        0.00049770        0.00012173
       -7.05705706        0.00389651        0.00328503        0.00049727        0.00011421
       -7.03703704        0.00354514        0.00293548        0.00050266        0.00010700
       -7.01701702        0.00323640        0.00262267        0.00051354        0.00010018
       -6.99699700        0.00297027        0.00234713        0.00052936        0.00009378
       -6.97697698        0.00274804        0.00211097        0.00054927        0.00008780
       -6.95695696        0.00257139        0.00191703        0.00057216        0.00008219
       -6.93693694        0.00244103        0.00176752        0.00059659        0.00007692
       -6.91691692        0.00235548        0.00166277        0.00062081        0.00007190
       -6.89689690        0.00231046        0.00160048        0.00064291        0.00006707
       -6.87687688        0.00229915        0.00157576        0.00066100        0.00006238
       -6.85685686        0.00231319        0.00158183        0.00067353        0.00005782
       -6.83683684        0.00234407        0.00161112        0.00067954        0.00005341
       -6.81681682        0.00238463        0.00165652        0.00067889        0.00004923
       -6.79679680        0.00243021        0.00171249        0.00067234        0.00004538
       -6.77677678        0.00247920        0.00177572        0.00066147        0.00004201
       -6.75675676        0.00253305        0.00184540        0.00064842        0.00003924
       -6.73673674        0.00259563        0.00192292        0.00063556        0.00003715
       -6.71671672        0.00267207        0.00201123        0.00062504        0.00003580
       -6.69669670        0.00276746        0.00211385        0.00061847        0.00003515
       -6.67667668        0.00288555        0.00223384        0.00061660        0.00003510
       -6.65665666        0.00302764        0.00237285        0.00061930        0.00003549
       -6.63663664        0.00319223        0.00253056        0.00062553        0.00003614
       -6.61661662        0.00337529        0.00270478        0.00063370        0.00003681
       -6.59659660        0.00357144        0.00289215        0.00064197        0.00003732
       -6.57657658        0.00377574        0.00308955        0.00064869        0.00003750
       -6.55655656        0.00398572        0.00329566        0.00065280        0.00003726
       -6.53653654        0.00420310        0.00351245        0.00065408        0.00003657
       -6.51651652        0.00443447        0.00374579        0.00065321        0.00003548
       -6.49649650        0.00469063        0.00400492        0.00065165        0.00003407
       -6.47647648        0.00498440        0.00430069        0.00065124        0.00003247
       -6.45645646        0.00532750        0.00464287        0.00065383        0.00003081
       -6.43643644        0.00572717        0.00503723        0.00066075        0.00002919
       -6.41641642        0.00618350        0.00548323        0.00067258        0.00002769
       -6.39639640        0.00668817        0.00597290        0.00068892        0.00002635
       -6.37637638        0.00722490        0.00649120        0.00070853        0.00002517
       -6.35635636        0.00777112        0.00701746        0.00072955        0.00002411
       -6.33633634        0.00830028        0.00752737        0.00074976        0.00002314
       -6.31631632        0.00878399        0.00799485        0.00076691        0.00002223
       -6.29629630        0.00919348        0.00839326        0.00077890        0.00002133
       -6.27627628        0.00950052        0.00869627        0.00078383        0.00002042
       -6.25625626        0.00967820        0.00887861        0.00078012        0.00001947
       -6.23623624        0.00970242        0.00891749        0.00076647        0.00001846
       -6.21621622        0.00955431        0.00879495        0.00074197        0.00001739
       -6.19619620        0.00922346        0.00850092        0.00070629        0.00001625
       -6.17617618        0.00871131        0.00803650        0.00065979        0.00001502
       -6.15615616        0.00803349        0.00741608        0.00060368        0.00001373
       -6.13613614        0.00722010        0.00666769        0.00054002        0.00001238
       -6.11611612        0.00631334        0.00583078        0.00047156        0.00001101
       -6.09609610        0.00536294        0.00495186        0.00040144        0.00000964
       -6.07607608        0.00441993        0.00407876        0.00033286        0.00000830
       -6.05605606        0.00353041        0.00325473        0.00026864        0.00000704
       -6.03603604        0.00273052        0.00251371        0.00021095        0.00000586
       -6.01601602        0.00204344        0.00187749        0.00016115        0.00000479
       -5.99599600        0.00147884        0.00135521        0.00011978        0.00000385
       -5.97597598        0.00103450        0.00094484        0.00008663        0.00000302
       -5.95595596        0.00069926        0.00063594        0.00006100        0.00000232
       -5.93593594        0.00045661        0.00041305        0.00004182        0.00000174
       -5.91591592        0.00028799        0.00025880        0.00002792        0.00000127
       -5.89589590        0.00017544        0.00015637        0.00001816        0.00000090
       -5.87587588        0.00010322        0.00009109        0.00001150        0.00000062
       -5.85585586        0.00005866        0.00005115        0.00000710        0.00000041
       -5.83583584        0.00003220        0.00002767        0.00000426        0.00000027
       -5.81581582        0.00001708        0.00001443        0.00000249        0.00000017
       -5.79579580        0.00000876        0.00000725        0.00000141        0.00000010
       -5.77577578        0.00000434        0.00000350        0.00000078        0.00000006
       -5.75575576        0.00000208        0.00000163        0.00000042        0.00000003
       -5.73573574        0.00000096        0.00000073        0.00000022        0.00000002
       -5.71571572        0.00000043        0.00000032        0.00000011        0.00000001
       -5.69569570        0.00000019        0.00000013        0.00000005        0.00000000
