#  aims_uuid : A391CB3C-1CEF-4591-A2B9-296226787F70                                
# Angular momentum resolved density for species Has calculated by FHI-aims
# The energy reference for this output is the chemical potential, mu =       -4.405020 eV
#      Energy (eV)         total dos     l= 0              l= 1              l= 2
       -5.59497971        0.00455180        0.00192798        0.00200022        0.00062360
       -5.57495969        0.00448179        0.00214508        0.00177567        0.00056104
       -5.55493967        0.00448317        0.00238246        0.00159588        0.00050483
       -5.53491965        0.00455556        0.00263742        0.00146163        0.00045650
       -5.51489963        0.00469474        0.00290631        0.00137141        0.00041702
       -5.49487961        0.00489283        0.00318451        0.00132167        0.00038665
       -5.47485959        0.00513867        0.00346640        0.00130720        0.00036506
       -5.45483957        0.00541877        0.00374554        0.00132180        0.00035142
       -5.43481955        0.00571881        0.00401527        0.00135897        0.00034458
       -5.41479953        0.00602591        0.00427004        0.00141255        0.00034332
       -5.39477951        0.00633137        0.00450752        0.00147733        0.00034652
       -5.37475949        0.00663347        0.00473082        0.00154941        0.00035324
       -5.35473947        0.00693931        0.00495024        0.00162629        0.00036278
       -5.33471945        0.00726497        0.00518355        0.00170677        0.00037465
       -5.31469943        0.00763305        0.00545402        0.00179060        0.00038844
       -5.29467941        0.00806764        0.00578594        0.00187797        0.00040373
       -5.27465939        0.00858744        0.00619841        0.00196900        0.00042003
       -5.25463937        0.00919855        0.00669861        0.00206323        0.00043671
       -5.23461935        0.00988872        0.00727648        0.00215926        0.00045297
       -5.21459933        0.01062503        0.00790260        0.00225451        0.00046791
       -5.19457931        0.01135601        0.00853024        0.00234522        0.00048054
       -5.17455929        0.01201814        0.00910169        0.00242659        0.00048986
       -5.15453927        0.01254561        0.00955744        0.00249325        0.00049491
       -5.13451925        0.01288116        0.00984635        0.00253994        0.00049486
       -5.11449923        0.01298577        0.00993429        0.00256239        0.00048910
       -5.09447921        0.01284501        0.00980944        0.00255825        0.00047733
       -5.07445919        0.01247103        0.00948340        0.00252791        0.00045972
       -5.05443917        0.01189996        0.00898820        0.00247483        0.00043693
       -5.03441915        0.01118571        0.00837029        0.00240533        0.00041010
       -5.01439913        0.01039148        0.00768304        0.00232767        0.00038077
       -4.99437911        0.00958081        0.00697938        0.00225073        0.00035070
       -4.97435909        0.00880958        0.00630560        0.00218238        0.00032159
       -4.95433907        0.00812003        0.00569708        0.00212805        0.00029490
       -4.93431905        0.00753752        0.00517607        0.00208982        0.00027164
       -4.91429903        0.00707004        0.00475153        0.00206621        0.00025230
       -4.89427901        0.00671013        0.00442054        0.00205270        0.00023689
       -4.87425899        0.00643889        0.00417104        0.00204284        0.00022501
       -4.85423897        0.00623104        0.00398544        0.00202961        0.00021599
       -4.83421895        0.00606060        0.00384476        0.00200674        0.00020911
       -4.81419893        0.00590608        0.00373269        0.00196973        0.00020366
       -4.79417891        0.00575470        0.00363925        0.00191636        0.00019909
       -4.77415889        0.00560498        0.00356329        0.00184668        0.00019501
       -4.75413887        0.00546727        0.00351351        0.00176257        0.00019119
       -4.73411885        0.00536206        0.00350742        0.00166713        0.00018752
       -4.71409883        0.00531631        0.00356844        0.00156391        0.00018396
       -4.69407881        0.00535812        0.00372117        0.00145642        0.00018053
       -4.67405879        0.00551071        0.00398580        0.00134769        0.00017722
       -4.65403877        0.00578676        0.00437255        0.00124018        0.00017403
       -4.63401875        0.00618416        0.00487743        0.00113578        0.00017095
       -4.61399873        0.00668422        0.00548036        0.00103593        0.00016793
       -4.59397871        0.00725317        0.00614644        0.00094178        0.00016495
       -4.57395869        0.00784676        0.00683054        0.00085422        0.00016199
       -4.55393867        0.00841756        0.00748457        0.00077395        0.00015904
       -4.53391865        0.00892358        0.00806601        0.00070141        0.00015615
       -4.51389863        0.00933629        0.00854605        0.00063682        0.00015342
       -4.49387861        0.00964623        0.00891508        0.00058012        0.00015103
       -4.47385859        0.00986458        0.00918420        0.00053113        0.00014925
       -4.45383857        0.01002011        0.00938201        0.00048961        0.00014848
       -4.43381855        0.01015186        0.00954717        0.00045545        0.00014924
       -4.41379853        0.01029932        0.00971843        0.00042880        0.00015209
       -4.39377851        0.01049235        0.00992467        0.00041007        0.00015761
       -4.37375849        0.01074342        0.01017731        0.00039987        0.00016624
       -4.35373847        0.01104398        0.01046704        0.00039876        0.00017818
       -4.33371845        0.01136582        0.01076554        0.00040700        0.00019328
       -4.31369843        0.01166674        0.01103147        0.00042435        0.00021092
       -4.29367841        0.01189893        0.01121881        0.00045000        0.00023011
       -4.27365839        0.01201781        0.01128557        0.00048267        0.00024957
       -4.25363837        0.01198948        0.01120066        0.00052092        0.00026790
       -4.23361835        0.01179537        0.01094800        0.00056347        0.00028390
       -4.21359833        0.01143376        0.01052757        0.00060949        0.00029671
       -4.19357831        0.01091881        0.00995421        0.00065861        0.00030599
       -4.17355829        0.01027753        0.00925483        0.00071074        0.00031196
       -4.15353827        0.00954588        0.00846502        0.00076563        0.00031524
       -4.13351825        0.00876430        0.00762522        0.00082239        0.00031668
       -4.11349823        0.00797315        0.00677686        0.00087920        0.00031708
       -4.09347821        0.00720858        0.00595829        0.00093324        0.00031704
       -4.07345819        0.00649892        0.00520107        0.00098109        0.00031677
       -4.05343817        0.00586262        0.00452704        0.00101943        0.00031615
       -4.03341815        0.00530772        0.00394697        0.00104589        0.00031485
       -4.01339813        0.00483331        0.00346098        0.00105980        0.00031252
       -3.99337811        0.00443244        0.00306088        0.00106256        0.00030901
       -3.97335809        0.00409568        0.00273366        0.00105755        0.00030447
       -3.95333807        0.00381425        0.00246519        0.00104962        0.00029944
       -3.93331805        0.00358200        0.00224315        0.00104413        0.00029472
       -3.91329803        0.00339571        0.00205857        0.00104593        0.00029121
       -3.89327801        0.00325405        0.00190583        0.00105856        0.00028967
       -3.87325799        0.00315576        0.00178157        0.00108368        0.00029051
       -3.85323797        0.00309803        0.00168322        0.00112112        0.00029369
       -3.83321795        0.00307571        0.00160781        0.00116923        0.00029866
       -3.81319793        0.00308166        0.00155153        0.00122560        0.00030453
       -3.79317791        0.00310807        0.00151006        0.00128784        0.00031018
       -3.77315789        0.00314805        0.00147937        0.00135412        0.00031456
       -3.75313787        0.00319710        0.00145670        0.00142354        0.00031686
       -3.73311785        0.00325364        0.00144111        0.00149588        0.00031664
       -3.71309783        0.00331869        0.00143353        0.00157124        0.00031392
       -3.69307781        0.00339469        0.00143636        0.00164926        0.00030908
       -3.67305779        0.00348383        0.00145260        0.00172850        0.00030273
       -3.65303777        0.00358656        0.00148493        0.00180604        0.00029559
       -3.63301775        0.00370054        0.00153477        0.00187745        0.00028832
       -3.61299773        0.00382032        0.00160165        0.00193726        0.00028141
       -3.59297771        0.00393789        0.00168292        0.00197981        0.00027516
       -3.57295769        0.00404374        0.00177384        0.00200024        0.00026967
       -3.55293767        0.00412850        0.00186811        0.00199549        0.00026490
       -3.53291765        0.00418444        0.00195880        0.00196492        0.00026073
       -3.51289763        0.00420696        0.00203946        0.00191049        0.00025701
       -3.49287761        0.00419536        0.00210535        0.00183643        0.00025358
       -3.47285759        0.00415318        0.00215439        0.00174849        0.00025031
       -3.45283757        0.00408771        0.00218779        0.00165287        0.00024705
       -3.43281755        0.00400895        0.00221000        0.00155529        0.00024366
       -3.41279753        0.00392823        0.00222811        0.00146013        0.00023999
       -3.39277751        0.00385662        0.00225067        0.00137009        0.00023586
       -3.37275749        0.00380356        0.00228626        0.00128616        0.00023114
       -3.35273747        0.00377582        0.00234204        0.00120808        0.00022570
       -3.33271745        0.00377724        0.00242276        0.00113492        0.00021956
       -3.31269743        0.00380898        0.00253036        0.00106579        0.00021283
       -3.29267741        0.00387050        0.00266441        0.00100033        0.00020577
       -3.27265739        0.00396083        0.00282313        0.00093895        0.00019875
       -3.25263737        0.00407978        0.00300471        0.00088282        0.00019225
       -3.23261735        0.00422855        0.00320832        0.00083350        0.00018672
       -3.21259733        0.00440954        0.00343447        0.00079249        0.00018258
       -3.19257731        0.00462514        0.00368430        0.00076079        0.00018005
       -3.17255729        0.00487587        0.00395819        0.00073853        0.00017915
       -3.15253727        0.00515853        0.00425401        0.00072486        0.00017966
       -3.13251725        0.00546513        0.00456593        0.00071806        0.00018115
       -3.11249723        0.00578333        0.00488444        0.00071584        0.00018305
       -3.09247721        0.00609843        0.00519785        0.00071581        0.00018477
       -3.07245719        0.00639666        0.00549501        0.00071587        0.00018578
       -3.05243717        0.00666868        0.00576836        0.00071457        0.00018576
       -3.03241715        0.00691194        0.00601604        0.00071128        0.00018462
       -3.01239713        0.00713085        0.00624219        0.00070615        0.00018251
       -2.99237711        0.00733435        0.00645471        0.00069985        0.00017979
       -2.97235709        0.00753135        0.00666120        0.00069324        0.00017691
       -2.95233707        0.00772545        0.00686416        0.00068698        0.00017430
       -2.93231705        0.00791087        0.00705731        0.00068129        0.00017227
       -2.91229703        0.00807105        0.00722437        0.00067577        0.00017092
       -2.89227701        0.00818100        0.00734132        0.00066956        0.00017013
       -2.87225699        0.00821261        0.00738152        0.00066150        0.00016959
       -2.85223697        0.00814174        0.00732230        0.00065054        0.00016889
       -2.83221695        0.00795465        0.00715102        0.00063605        0.00016758
       -2.81219693        0.00765197        0.00686867        0.00061801        0.00016529
       -2.79217691        0.00724898        0.00649001        0.00059716        0.00016181
       -2.77215689        0.00677222        0.00604034        0.00057481        0.00015707
       -2.75213687        0.00625379        0.00554993        0.00055265        0.00015121
       -2.73211685        0.00572507        0.00504816        0.00053246        0.00014445
       -2.71209683        0.00521168        0.00455875        0.00051584        0.00013708
       -2.69207681        0.00473087        0.00409744        0.00050400        0.00012942
       -2.67205679        0.00429157        0.00367214        0.00049770        0.00012173
       -2.65203677        0.00389651        0.00328503        0.00049727        0.00011421
       -2.63201675        0.00354514        0.00293548        0.00050266        0.00010700
       -2.61199673        0.00323640        0.00262267        0.00051354        0.00010018
       -2.59197671        0.00297027        0.00234713        0.00052936        0.00009378
       -2.57195669        0.00274804        0.00211097        0.00054927        0.00008780
       -2.55193667        0.00257139        0.00191703        0.00057216        0.00008219
       -2.53191665        0.00244103        0.00176752        0.00059659        0.00007692
       -2.51189663        0.00235548        0.00166277        0.00062081        0.00007190
       -2.49187661        0.00231046        0.00160048        0.00064291        0.00006707
       -2.47185659        0.00229915        0.00157576        0.00066100        0.00006238
       -2.45183657        0.00231319        0.00158183        0.00067353        0.00005782
       -2.43181655        0.00234407        0.00161112        0.00067954        0.00005341
       -2.41179653        0.00238463        0.00165652        0.00067889        0.00004923
       -2.39177651        0.00243021        0.00171249        0.00067234        0.00004538
       -2.37175649        0.00247920        0.00177572        0.00066147        0.00004201
       -2.35173647        0.00253305        0.00184540        0.00064842        0.00003924
       -2.33171645        0.00259563        0.00192292        0.00063556        0.00003715
       -2.31169643        0.00267207        0.00201123        0.00062504        0.00003580
       -2.29167641        0.00276746        0.00211385        0.00061847        0.00003515
       -2.27165639        0.00288555        0.00223384        0.00061660        0.00003510
       -2.25163637        0.00302764        0.00237285        0.00061930        0.00003549
       -2.23161635        0.00319223        0.00253056        0.00062553        0.00003614
       -2.21159633        0.00337529        0.00270478        0.00063370        0.00003681
       -2.19157631        0.00357144        0.00289215        0.00064197        0.00003732
       -2.17155629        0.00377574        0.00308955        0.00064869        0.00003750
       -2.15153627        0.00398572        0.00329566        0.00065280        0.00003726
       -2.13151625        0.00420310        0.00351245        0.00065408        0.00003657
       -2.11149623        0.00443447        0.00374579        0.00065321        0.00003548
       -2.09147621        0.00469063        0.00400492        0.00065165        0.00003407
       -2.07145619        0.00498440        0.00430069        0.00065124        0.00003247
       -2.05143617        0.00532750        0.00464287        0.00065383        0.00003081
       -2.03141615        0.00572717        0.00503723        0.00066075        0.00002919
       -2.01139613        0.00618350        0.00548323        0.00067258        0.00002769
       -1.99137611        0.00668817        0.00597290        0.00068892        0.00002635
       -1.97135609        0.00722490        0.00649120        0.00070853        0.00002517
       -1.95133607        0.00777112        0.00701746        0.00072955        0.00002411
       -1.93131605        0.00830028        0.00752737        0.00074976        0.00002314
       -1.91129603        0.00878399        0.00799485        0.00076691        0.00002223
       -1.89127601        0.00919348        0.00839326        0.00077890        0.00002133
       -1.87125599        0.00950052        0.00869627        0.00078383        0.00002042
       -1.85123597        0.00967820        0.00887861        0.00078012        0.00001947
       -1.83121595        0.00970242        0.00891749        0.00076647        0.00001846
       -1.81119593        0.00955431        0.00879495        0.00074197        0.00001739
       -1.79117591        0.00922346        0.00850092        0.00070629        0.00001625
       -1.77115589        0.00871131        0.00803650        0.00065979        0.00001502
       -1.75113587        0.00803349        0.00741608        0.00060368        0.00001373
       -1.73111585        0.00722010        0.00666769        0.00054002        0.00001238
       -1.71109583        0.00631334        0.00583078        0.00047156        0.00001101
       -1.69107581        0.00536294        0.00495186        0.00040144        0.00000964
       -1.67105579        0.00441993        0.00407876        0.00033286        0.00000830
       -1.65103577        0.00353041        0.00325473        0.00026864        0.00000704
       -1.63101575        0.00273052        0.00251371        0.00021095        0.00000586
       -1.61099573        0.00204344        0.00187749        0.00016115        0.00000479
       -1.59097571        0.00147884        0.00135521        0.00011978        0.00000385
       -1.57095569        0.00103450        0.00094484        0.00008663        0.00000302
       -1.55093567        0.00069926        0.00063594        0.00006100        0.00000232
       -1.53091565        0.00045661        0.00041305        0.00004182        0.00000174
       -1.51089563        0.00028799        0.00025880        0.00002792        0.00000127
       -1.49087561        0.00017544        0.00015637        0.00001816        0.00000090
       -1.47085559        0.00010322        0.00009109        0.00001150        0.00000062
       -1.45083557        0.00005866        0.00005115        0.00000710        0.00000041
       -1.43081555        0.00003220        0.00002767        0.00000426        0.00000027
       -1.41079553        0.00001708        0.00001443        0.00000249        0.00000017
       -1.39077551        0.00000876        0.00000725        0.00000141        0.00000010
       -1.37075549        0.00000434        0.00000350        0.00000078        0.00000006
       -1.35073547        0.00000208        0.00000163        0.00000042        0.00000003
       -1.33071545        0.00000096        0.00000073        0.00000022        0.00000002
       -1.31069543        0.00000043        0.00000032        0.00000011        0.00000001
       -1.29067541        0.00000019        0.00000013        0.00000005        0.00000000
