#  aims_uuid : A391CB3C-1CEF-4591-A2B9-296226787F70                                
# Angular momentum resolved density for species Oas calculated by FHI-aims
# The energy reference for this output is the chemical potential, mu =       -4.405020 eV
#      Energy (eV)         total dos     l= 0              l= 1              l= 2              l= 3              l= 4
       -5.59497971        0.21206978       -0.00067993        0.20809306        0.00440910        0.00022836        0.00001919
       -5.57495969        0.18586828       -0.00077156        0.18204203        0.00434850        0.00022761        0.00002169
       -5.55493967        0.16255731       -0.00087955        0.15894200        0.00424423        0.00022632        0.00002431
       -5.53491965        0.14281272       -0.00099514        0.13945244        0.00410377        0.00022473        0.00002692
       -5.51489963        0.12707663       -0.00110903        0.12399835        0.00393491        0.00022298        0.00002943
       -5.49487961        0.11550391       -0.00121279        0.11271836        0.00374545        0.00022117        0.00003172
       -5.47485959        0.10796363       -0.00129994        0.10546737        0.00354313        0.00021934        0.00003374
       -5.45483957        0.10409055       -0.00136633        0.10186839        0.00333559        0.00021748        0.00003542
       -5.43481955        0.10337013       -0.00140994        0.10139744        0.00313029        0.00021557        0.00003677
       -5.41479953        0.10523490       -0.00143027        0.10347934        0.00293448        0.00021357        0.00003779
       -5.39477951        0.10914948       -0.00142774        0.10757221        0.00275503        0.00021146        0.00003851
       -5.37475949        0.11466712       -0.00140312        0.11322360        0.00259840        0.00020923        0.00003902
       -5.35473947        0.12144899       -0.00135746        0.12008970        0.00247048        0.00020688        0.00003940
       -5.33471945        0.12924770       -0.00129220        0.12791926        0.00237644        0.00020442        0.00003978
       -5.31469943        0.13786540       -0.00120943        0.13651230        0.00232040        0.00020185        0.00004030
       -5.29467941        0.14710207       -0.00111222        0.14566914        0.00230493        0.00019912        0.00004110
       -5.27465939        0.15670996       -0.00100455        0.15514543        0.00233059        0.00019620        0.00004229
       -5.25463937        0.16636569       -0.00089116        0.16462448        0.00239541        0.00019299        0.00004396
       -5.23461935        0.17566455       -0.00077705        0.17371133        0.00249477        0.00018941        0.00004609
       -5.21459933        0.18413475       -0.00066693        0.18194618        0.00262149        0.00018540        0.00004860
       -5.19457931        0.19126560       -0.00056472        0.18883150        0.00276657        0.00018094        0.00005132
       -5.17455929        0.19654380       -0.00047323        0.19386686        0.00292007        0.00017609        0.00005401
       -5.15453927        0.19949451       -0.00039398        0.19658878        0.00307229        0.00017101        0.00005641
       -5.13451925        0.19972671       -0.00032728        0.19661499        0.00321481        0.00016594        0.00005825
       -5.11449923        0.19698174       -0.00027242        0.19369230        0.00334132        0.00016122        0.00005932
       -5.09447921        0.19118107       -0.00022786        0.18774419        0.00344802        0.00015723        0.00005949
       -5.07445919        0.18246389       -0.00019158        0.17890866        0.00353368        0.00015441        0.00005872
       -5.05443917        0.17120249       -0.00016125        0.16755417        0.00359928        0.00015320        0.00005708
       -5.03441915        0.15798447       -0.00013454        0.15426271        0.00364750        0.00015405        0.00005475
       -5.01439913        0.14355800       -0.00010928        0.13977609        0.00368191        0.00015734        0.00005195
       -4.99437911        0.12874660       -0.00008360        0.12491177        0.00370614        0.00016337        0.00004892
       -4.97435909        0.11434926       -0.00005599        0.11046400        0.00372305        0.00017227        0.00004592
       -4.95433907        0.10104695       -0.00002532        0.09711118        0.00373401        0.00018393        0.00004315
       -4.93431905        0.08933482        0.00000920        0.08534850        0.00373842        0.00019797        0.00004073
       -4.91429903        0.07949190        0.00004812        0.07545760        0.00373379        0.00021368        0.00003871
       -4.89427901        0.07158956        0.00009173        0.06751461        0.00371613        0.00023005        0.00003706
       -4.87425899        0.06553078        0.00014013        0.06142824        0.00368090        0.00024583        0.00003567
       -4.85423897        0.06110607        0.00019326        0.05699442        0.00362426        0.00025969        0.00003443
       -4.83421895        0.05805157        0.00025100        0.05395285        0.00354423        0.00027032        0.00003318
       -4.81419893        0.05609753        0.00031340        0.05203404        0.00344163        0.00027665        0.00003181
       -4.79417891        0.05500091        0.00038110        0.05099103        0.00332055        0.00027800        0.00003023
       -4.77415889        0.05456120        0.00045567        0.05061475        0.00318817        0.00027419        0.00002842
       -4.75413887        0.05462230        0.00053998        0.05073632        0.00305405        0.00026556        0.00002640
       -4.73411885        0.05506517        0.00063808        0.05122084        0.00292906        0.00025295        0.00002424
       -4.71409883        0.05579638        0.00075483        0.05195787        0.00282407        0.00023754        0.00002207
       -4.69407881        0.05673632        0.00089490        0.05285204        0.00274863        0.00022074        0.00002000
       -4.67405879        0.05780974        0.00106146        0.05381635        0.00270978        0.00020398        0.00001816
       -4.65403877        0.05894006        0.00125488        0.05476887        0.00271112        0.00018855        0.00001665
       -4.63401875        0.06004779        0.00147165        0.05563298        0.00275221        0.00017542        0.00001552
       -4.61399873        0.06105313        0.00170406        0.05634056        0.00282848        0.00016523        0.00001480
       -4.59397871        0.06188238        0.00194079        0.05683736        0.00293157        0.00015818        0.00001448
       -4.57395869        0.06247758        0.00216857        0.05709000        0.00305043        0.00015411        0.00001448
       -4.55393867        0.06280848        0.00237456        0.05709392        0.00317272        0.00015256        0.00001473
       -4.53391865        0.06288560        0.00254917        0.05688175        0.00328671        0.00015283        0.00001513
       -4.51389863        0.06277245        0.00268857        0.05653105        0.00338306        0.00015418        0.00001558
       -4.49387861        0.06259443        0.00279611        0.05617016        0.00345628        0.00015588        0.00001600
       -4.47385859        0.06254116        0.00288243        0.05597955        0.00350550        0.00015735        0.00001632
       -4.45383857        0.06285863        0.00296372        0.05618579        0.00353438        0.00015824        0.00001652
       -4.43381855        0.06382852        0.00305846        0.05704489        0.00355017        0.00015843        0.00001656
       -4.41379853        0.06573340        0.00318345        0.05881330        0.00356209        0.00015808        0.00001648
       -4.39377851        0.06881027        0.00334974        0.06170730        0.00357939        0.00015753        0.00001630
       -4.37375849        0.07319858        0.00355969        0.06585606        0.00360951        0.00015726        0.00001606
       -4.35373847        0.07889311        0.00380572        0.07125724        0.00365662        0.00015772        0.00001581
       -4.33371845        0.08571407        0.00407115        0.07774715        0.00372091        0.00015926        0.00001560
       -4.31369843        0.09330557        0.00433269        0.08499675        0.00379861        0.00016207        0.00001546
       -4.29367841        0.10116897        0.00456410        0.09254071        0.00388267        0.00016605        0.00001543
       -4.27365839        0.10872937        0.00474006        0.09983875        0.00396409        0.00017092        0.00001555
       -4.25363837        0.11542429        0.00483945        0.10635948        0.00403336        0.00017620        0.00001581
       -4.23361835        0.12079597        0.00484775        0.11166855        0.00408211        0.00018136        0.00001619
       -4.21359833        0.12456528        0.00475827        0.11549996        0.00410442        0.00018595        0.00001668
       -4.19357831        0.12666854        0.00457240        0.11779155        0.00409779        0.00018960        0.00001720
       -4.17355829        0.12724725        0.00429914        0.11867477        0.00406345        0.00019219        0.00001770
       -4.15353827        0.12659351        0.00395405        0.11842155        0.00400605        0.00019375        0.00001812
       -4.13351825        0.12506638        0.00355763        0.11736337        0.00393252        0.00019445        0.00001842
       -4.11349823        0.12300288        0.00313330        0.11580600        0.00385051        0.00019453        0.00001855
       -4.09347821        0.12064857        0.00270496        0.11396437        0.00376650        0.00019421        0.00001853
       -4.07345819        0.11812611        0.00229448        0.11193531        0.00368431        0.00019363        0.00001838
       -4.05343817        0.11544834        0.00191950        0.10971365        0.00360421        0.00019283        0.00001814
       -4.03341815        0.11256828        0.00159196        0.10724352        0.00352317        0.00019178        0.00001785
       -4.01339813        0.10944718        0.00131762        0.10448562        0.00343604        0.00019036        0.00001754
       -3.99337811        0.10611718        0.00109665        0.10147727        0.00333753        0.00018850        0.00001723
       -3.97335809        0.10271715        0.00092493        0.09836484        0.00322429        0.00018616        0.00001693
       -3.95333807        0.09949007        0.00079582        0.09539775        0.00309644        0.00018343        0.00001663
       -3.93331805        0.09674202        0.00070176        0.09288526        0.00295819        0.00018047        0.00001633
       -3.91329803        0.09477490        0.00063552        0.09112862        0.00281721        0.00017754        0.00001601
       -3.89327801        0.09381208        0.00059083        0.09034756        0.00268307        0.00017493        0.00001569
       -3.87325799        0.09393762        0.00056261        0.09062155        0.00256518        0.00017289        0.00001539
       -3.85323797        0.09506546        0.00054683        0.09186093        0.00247098        0.00017159        0.00001514
       -3.83321795        0.09694611        0.00054031        0.09381501        0.00240468        0.00017111        0.00001499
       -3.81319793        0.09920864        0.00054061        0.09611454        0.00236712        0.00017138        0.00001499
       -3.79317791        0.10142710        0.00054593        0.09833743        0.00235633        0.00017225        0.00001517
       -3.77315789        0.10319513        0.00055508        0.10008222        0.00236878        0.00017351        0.00001554
       -3.75313787        0.10419189        0.00056745        0.10103276        0.00240066        0.00017491        0.00001612
       -3.73311785        0.10422569        0.00058289        0.10100104        0.00244867        0.00017623        0.00001686
       -3.71309783        0.10324859        0.00060145        0.09994185        0.00251027        0.00017729        0.00001774
       -3.69307781        0.10134288        0.00062325        0.09793977        0.00258325        0.00017794        0.00001867
       -3.67305779        0.09868688        0.00064822        0.09517610        0.00266488        0.00017810        0.00001959
       -3.65303777        0.09551145        0.00067610        0.09188619        0.00275105        0.00017768        0.00002042
       -3.63301775        0.09205817        0.00070645        0.08831808        0.00283587        0.00017666        0.00002111
       -3.61299773        0.08854725        0.00073876        0.08470002        0.00291184        0.00017503        0.00002161
       -3.59297771        0.08515806        0.00077252        0.08122001        0.00297085        0.00017280        0.00002188
       -3.57295769        0.08202101        0.00080725        0.07801613        0.00300565        0.00017005        0.00002194
       -3.55293767        0.07921690        0.00084249        0.07517422        0.00301149        0.00016691        0.00002180
       -3.53291765        0.07677968        0.00087773        0.07272944        0.00298742        0.00016358        0.00002151
       -3.51289763        0.07470044        0.00091234        0.07066965        0.00293698        0.00016033        0.00002114
       -3.49287761        0.07293218        0.00094561        0.06894043        0.00286794        0.00015744        0.00002075
       -3.47285759        0.07139665        0.00097687        0.06745304        0.00279110        0.00015521        0.00002043
       -3.45283757        0.06999432        0.00100570        0.06609602        0.00271852        0.00015385        0.00002023
       -3.43281755        0.06861778        0.00103221        0.06475060        0.00266130        0.00015350        0.00002018
       -3.41279753        0.06716715        0.00105714        0.06330797        0.00262762        0.00015413        0.00002029
       -3.39277751        0.06556529        0.00108187        0.06168609        0.00262124        0.00015557        0.00002053
       -3.37275749        0.06377025        0.00110821        0.05984302        0.00264073        0.00015746        0.00002083
       -3.35273747        0.06178298        0.00113802        0.05778471        0.00267978        0.00015936        0.00002111
       -3.33271745        0.05964929        0.00117276        0.05556625        0.00272825        0.00016076        0.00002128
       -3.31269743        0.05745595        0.00121325        0.05328636        0.00277392        0.00016117        0.00002125
       -3.29267741        0.05532139        0.00125961        0.05107597        0.00280463        0.00016022        0.00002095
       -3.27265739        0.05338162        0.00131146        0.04908186        0.00281022        0.00015772        0.00002036
       -3.25263737        0.05177239        0.00136832        0.04744678        0.00278413        0.00015368        0.00001948
       -3.23261735        0.05060887        0.00143003        0.04628801        0.00272422        0.00014827        0.00001834
       -3.21259733        0.04996527        0.00149685        0.04567689        0.00263268        0.00014183        0.00001701
       -3.19257731        0.04985755        0.00156925        0.04562267        0.00251527        0.00013478        0.00001558
       -3.17255729        0.05023335        0.00164733        0.04606443        0.00237994        0.00012754        0.00001411
       -3.15253727        0.05097305        0.00173011        0.04687440        0.00223539        0.00012045        0.00001270
       -3.13251725        0.05190399        0.00181500        0.04787409        0.00208970        0.00011378        0.00001141
       -3.11249723        0.05282757        0.00189781        0.04886220        0.00194956        0.00010771        0.00001029
       -3.09247721        0.05355481        0.00197336        0.04964987        0.00181991        0.00010231        0.00000936
       -3.07245719        0.05394320        0.00203666        0.05009619        0.00170409        0.00009762        0.00000864
       -3.05243717        0.05392591        0.00208433        0.05013552        0.00160425        0.00009368        0.00000812
       -3.03241715        0.05352520        0.00211567        0.04978945        0.00152176        0.00009052        0.00000780
       -3.01239713        0.05284530        0.00213298        0.04915905        0.00145746        0.00008817        0.00000763
       -2.99237711        0.05204507        0.00214089        0.04839828        0.00141163        0.00008667        0.00000760
       -2.97235709        0.05129634        0.00214474        0.04767409        0.00138384        0.00008601        0.00000766
       -2.95233707        0.05073811        0.00214863        0.04712286        0.00137269        0.00008614        0.00000779
       -2.93231705        0.05043841        0.00215362        0.04681404        0.00137584        0.00008693        0.00000797
       -2.91229703        0.05037412        0.00215691        0.04673058        0.00139018        0.00008825        0.00000821
       -2.89227701        0.05043424        0.00215229        0.04677107        0.00141247        0.00008991        0.00000850
       -2.87225699        0.05044582        0.00213179        0.04677316        0.00144017        0.00009182        0.00000888
       -2.85223697        0.05021576        0.00208806        0.04655198        0.00147236        0.00009398        0.00000938
       -2.83221695        0.04957713        0.00201675        0.04594329        0.00151053        0.00009654        0.00001003
       -2.81219693        0.04842818        0.00191816        0.04484041        0.00155893        0.00009983        0.00001086
       -2.79217691        0.04675434        0.00179752        0.04321611        0.00162445        0.00010435        0.00001191
       -2.77215689        0.04462909        0.00166403        0.04112514        0.00171595        0.00011074        0.00001322
       -2.75213687        0.04219540        0.00152888        0.03868891        0.00184310        0.00011970        0.00001482
       -2.73211685        0.03963447        0.00140285        0.03606791        0.00201507        0.00013190        0.00001674
       -2.71209683        0.03713113        0.00129435        0.03343058        0.00223925        0.00014790        0.00001903
       -2.69207681        0.03484462        0.00120820        0.03092634        0.00252026        0.00016809        0.00002173
       -2.67205679        0.03289063        0.00114545        0.02866835        0.00285935        0.00019262        0.00002486
       -2.65203677        0.03133598        0.00110416        0.02672767        0.00325436        0.00022137        0.00002842
       -2.63201675        0.03020337        0.00108058        0.02513656        0.00369984        0.00025397        0.00003242
       -2.61199673        0.02948154        0.00107047        0.02389707        0.00418736        0.00028981        0.00003683
       -2.59197671        0.02913541        0.00107012        0.02299000        0.00470572        0.00032800        0.00004157
       -2.57195669        0.02911293        0.00107676        0.02238127        0.00524092        0.00036744        0.00004654
       -2.55193667        0.02934786        0.00108858        0.02202474        0.00577614        0.00040679        0.00005161
       -2.53191665        0.02976017        0.00110435        0.02186275        0.00629194        0.00044453        0.00005660
