#  aims_uuid : A391CB3C-1CEF-4591-A2B9-296226787F70                                
# Angular momentum resolved density for species Sas calculated by FHI-aims
# The energy reference for this output is the chemical potential, mu =       -4.405020 eV
#      Energy (eV)         total dos     l= 0              l= 1              l= 2              l= 3              l= 4
       -5.59497971       60.15145007        4.89113695       51.56382057        3.28613007        0.37516226        0.03520023
       -5.57495969       63.92826684        5.24559370       54.76824371        3.48043065        0.39581849        0.03818028
       -5.55493967       67.35021105        5.55588485       57.69411755        3.64487581        0.41390824        0.04142461
       -5.53491965       70.23481080        5.80791063       60.18210756        3.77128206        0.42875429        0.04475626
       -5.51489963       72.39931291        5.98818994       62.07162751        3.85189730        0.43963484        0.04796332
       -5.49487961       73.68797723        6.08554016       63.22517617        3.88054146        0.44588953        0.05082991
       -5.47485959       73.99713636        6.09272101       63.55052186        3.85368763        0.44703780        0.05316806
       -5.45483957       73.29241322        6.00768900       63.01576365        3.77123588        0.44288105        0.05484364
       -5.43481955       71.61462423        5.83419722       61.65425948        3.63681135        0.43356489        0.05579130
       -5.41479953       69.07372667        5.58161758       59.55897207        3.45753243        0.41958835        0.05601624
       -5.39477951       65.83280755        5.26401744       56.86814253        3.24330518        0.40175856        0.05558384
       -5.37475949       62.08591396        4.89865301       53.74577876        3.00578109        0.38110042        0.05460069
       -5.35473947       58.03424448        4.50413262       50.36102494        2.75715636        0.35873832        0.05319224
       -5.33471945       53.86495598        4.09854573       46.87016059        2.50899656        0.33577084        0.05148226
       -5.31469943       49.73586204        3.69784837       43.40402546        2.27125032        0.31315958        0.04957831
       -5.29467941       45.76789032        3.31474110       40.06235658        2.05157675        0.29165048        0.04756541
       -5.27465939       42.04556507        2.95817618       36.91508372        1.85505755        0.27173930        0.04550832
       -5.25463937       38.62420995        2.63349980       34.00926407        1.68430100        0.25368457        0.04346051
       -5.23461935       35.54128793        2.34310213       31.37926920        1.53987823        0.23756138        0.04147700
       -5.21459933       32.82859258        2.08734829       29.05729916        1.42097671        0.22334119        0.03962724
       -5.19457931       30.52209191        1.86552615       27.08145712        1.32612531        0.21097857        0.03800477
       -5.17455929       28.66711917        1.67658561       25.49946810        1.25384821        0.20048613        0.03673112
       -5.15453927       27.31806391        1.51954126       24.36744452        1.20314050        0.19198479        0.03595285
       -5.13451925       26.53329685        1.39353240       23.74449513        1.17371269        0.18572454        0.03583210
       -5.11449923       26.36726761        1.29763772       23.68501090        1.16600775        0.18207906        0.03653218
       -5.09447921       26.86218736        1.23059364       24.23083667        1.18103445        0.18152199        0.03820061
       -5.07445919       28.04135578        1.19055631       25.40517723        1.22007708        0.18459321        0.04095194
       -5.05443917       29.90521143        1.17499034       27.20917380        1.28433531        0.19185916        0.04485282
       -5.03441915       32.42997542        1.18069368       29.62097584        1.37452964        0.20386560        0.04991066
       -5.01439913       35.56777843        1.20391024       32.59623204        1.49049280        0.22107670        0.05606664
       -4.99437911       39.24676860        1.24046134       36.06855532        1.63076550        0.24379364        0.06319280
       -4.97435909       43.37004271        1.28584710       39.94882088        1.79223077        0.27205131        0.07109267
       -4.95433907       47.81321527        1.33531381       44.12304696        1.96984828        0.30550172        0.07950450
       -4.93431905       52.42169896        1.38392789       48.44978550        2.15657340        0.34330492        0.08810725
       -4.91429903       57.00983652        1.42671700       52.75898149        2.34354978        0.38405832        0.09652995
       -4.89427901       61.36443475        1.45892339       56.85471114        2.52063584        0.42579807        0.10436632
       -4.87425899       65.25472157        1.47636824       60.52379527        2.67726304        0.46609860        0.11119642
       -4.85423897       68.44930139        1.47586904       63.55099749        2.80354043        0.50227814        0.11661628
       -4.83421895       70.73868732        1.45561049       65.73967005        2.89143998        0.53169254        0.12027426
       -4.81419893       71.96005424        1.41536310       66.93485812        2.93584846        0.55207432        0.12191023
       -4.79417891       72.01963455        1.35647796       67.04463336        2.93527587        0.56185598        0.12139139
       -4.77415889       70.90812064        1.28164922       66.05525024        2.89207051        0.56041332        0.11873734
       -4.75413887       68.70561585        1.19450386       64.03671306        2.81209298        0.54817754        0.11412841
       -4.73411885       65.57475266        1.09912414       61.13723039        2.70391341        0.52659121        0.10789351
       -4.71409883       61.74295944        0.99961529       57.56726342        2.57768698        0.49791547        0.10047828
       -4.69407881       57.47685585        0.89979782       53.57582693        2.44390834        0.46492493        0.09239783
       -4.67405879       53.05293239        0.80304729       49.42291742        2.31224057        0.43054578        0.08418133
       -4.65403877       48.72887876        0.71224698       45.35224615        2.19057097        0.39749787        0.07631679
       -4.63401875       44.71932262        0.62978640       41.56795477        2.08438299        0.36799445        0.06920401
       -4.61399873       41.17863969        0.55753938       38.21796888        1.99647322        0.34353700        0.06312121
       -4.59397871       38.19222753        0.49678763       35.38541317        1.92699445        0.32482335        0.05820894
       -4.57395869       35.77643226        0.44810162       33.08831525        1.87377573        0.31176818        0.05447148
       -4.55393867       33.88630112        0.41122899       31.28680414        1.83285415        0.30361978        0.05179405
       -4.53391865       32.42954941        0.38505627       29.89622743        1.79914729        0.29914637        0.04997205
       -4.51389863       31.28459026        0.36769571       28.80409219        1.76719479        0.29685991        0.04874767
       -4.49387861       30.32019127        0.35671276       27.88848466        1.73189987        0.29524536        0.04784863
       -4.47385859       29.41429805        0.34946482       27.03563806        1.68920419        0.29296659        0.04702439
       -4.45383857       28.46979417        0.34348519       26.15457465        1.63663149        0.28902718        0.04607567
       -4.43381855       27.42542959        0.33682907       25.18721464        1.57363898        0.28287232        0.04487457
       -4.41379853       26.26081397        0.32830711       24.11298156        1.50172551        0.27442595        0.04337384
       -4.39377851       24.99519148        0.31756060       22.94769314        1.42426786        0.26406492        0.04160496
       -4.37375849       23.68061098        0.30497370       21.73733906        1.34609358        0.25253834        0.03966629
       -4.35373847       22.39095409        0.29145750       20.54810153        1.27284583        0.24084568        0.03770354
       -4.33371845       21.20891286        0.27816806       19.45452644        1.21024099        0.23009189        0.03588548
       -4.31369843       20.21325093        0.26622987       18.52795639        1.16334643        0.22133963        0.03437861
       -4.29367841       19.46843860        0.25652581       17.82710807        1.13600186        0.21547862        0.03332423
       -4.27365839       19.01805328        0.24959009       17.39204347        1.13047130        0.21312776        0.03282065
       -4.25363837       18.88235709        0.24561013       17.24190359        1.14735218        0.21457895        0.03291223
       -4.23361835       19.05947577        0.24451464       17.37588600        1.18570530        0.21978388        0.03358595
       -4.21359833       19.52888453        0.24610572       17.77630350        1.24332249        0.22837809        0.03477472
       -4.19357831       20.25564941        0.25018569       18.41232984        1.31703423        0.23973306        0.03636659
       -4.17355829       21.19411719        0.25663614       19.24325907        1.40297737        0.25302638        0.03821822
       -4.15353827       22.29037983        0.26542409       20.22067632        1.49678637        0.26732174        0.04017131
       -4.13351825       23.48363630        0.27653569       21.28965769        1.59371991        0.28165253        0.04207048
       -4.11349823       24.70726811        0.28986369       22.38974486        1.68877449        0.29510437        0.04378070
       -4.09347821       25.89079999        0.30509472       23.45675959        1.77685161        0.30689153        0.04520254
       -4.07345819       26.96379152        0.32164915       24.42640515        1.85303264        0.31642156        0.04628301
       -4.05343817       27.86209535        0.33871523       25.24003958        1.91297837        0.32334173        0.04702044
       -4.03341815       28.53597663        0.35539177       25.85214248        1.95341833        0.32756153        0.04746251
       -4.01339813       28.95860753        0.37091732       26.23810060        1.97264393        0.32924782        0.04769786
       -3.99337811       29.13278952        0.38492968       26.40033947        1.97088517        0.32879242        0.04784278
       -3.97335809       29.09372542        0.39768176       26.37081370        1.95044844        0.32675606        0.04802546
       -3.95333807       28.90639440        0.41014577       26.20855246        1.91552904        0.32379635        0.04837077
       -3.93331805       28.65743867        0.42396771       25.99220863        1.87168426        0.32059017        0.04898790
       -3.91329803       28.44305280        0.44127897       25.80900764        1.82504145        0.31776214        0.04996261
       -3.89327801       28.35563814        0.46441544       25.74264231        1.78139557        0.31583027        0.05135455
       -3.87325799       28.47246690        0.49562197       25.86307753        1.74539231        0.31517608        0.05319901
       -3.85323797       28.84906970        0.53682126       26.22071685        1.71997850        0.31604171        0.05551137
       -3.83321795       29.51864521        0.58950204       26.84607016        1.70623064        0.31855004        0.05829232
       -3.81319793       30.49693497        0.65473872       27.75436016        1.70356622        0.32273806        0.06153182
       -3.79317791       31.79030685        0.73330931       28.95296107        1.71023501        0.32859114        0.06521032
       -3.77315789       33.40378162        0.82584125       30.44866177        1.72391605        0.33606562        0.06929692
       -3.75313787       35.34572492        0.93289818       32.25175680        1.74223348        0.34509181        0.07374465
       -3.73311785       37.62691044        1.05492845       34.37488739        1.76305489        0.35555554        0.07848417
       -3.71309783       40.25336701        1.19202995       36.82612674        1.78452874        0.36726404        0.08341756
       -3.69307781       43.21440672        1.34354038       39.59762554        1.80491907        0.37990763        0.08841410
       -3.67305779       46.46899114        1.50752832       42.65275062        1.82237012        0.39303217        0.09330992
       -3.65303777       49.93467081        1.68032164       45.91564454        1.83475505        0.40603642        0.09791316
       -3.63301775       53.48339045        1.85624572       49.26719678        1.83972740        0.41820482        0.10201573
       -3.61299773       56.94734191        2.02773490       52.55040230        1.83501441        0.42877846        0.10541184
       -3.59297771       60.13587024        2.18591612       55.58607608        1.81889848        0.43705788        0.10792169
       -3.57295769       62.86159217        2.32164876       58.19724738        1.79075722        0.44252147        0.10941734
       -3.55293767       64.97103189        2.42686663       60.23788457        1.75149903        0.44493581        0.10984585
       -3.53291765       66.37302608        2.49594583       61.61965719        1.70374824        0.44443079        0.10924403
       -3.51289763       67.05763753        2.52676266       62.32992586        1.65169371        0.44151546        0.10773984
       -3.49287761       67.09976164        2.52113802       62.43546837        1.60059716        0.43702059        0.10553750
       -3.47285759       66.64489860        2.48449544       62.06950982        1.55603744        0.43196895        0.10288695
       -3.45283757       65.87899275        2.42475890       61.40377455        1.52302504        0.42739205        0.10004222
       -3.43281755       64.98864096        2.35072841       60.61142129        1.50514718        0.42412714        0.09721694
       -3.41279753       64.12102656        2.27032910       59.82961568        1.50389774        0.42263742        0.09454662
       -3.39277751       63.35358998        2.18917759       59.13113317        1.51831491        0.42289731        0.09206699
       -3.37275749       62.68129649        2.10982729       58.51238171        1.54500006        0.42437332        0.08971411
       -3.35273747       62.02486251        2.03186188       57.90101292        1.57853012        0.42611038        0.08734720
       -3.33271745       61.25769953        1.95276476       57.18102804        1.61220851        0.42690912        0.08478909
       -3.31269743       60.24429927        1.86927743       56.22855558        1.63903490        0.42555656        0.08187481
       -3.29267741       58.87984922        1.77884039       54.94872846        1.65272484        0.42105899        0.07849654
       -3.27265739       57.12089678        1.68071697       53.30412861        1.64859231        0.41282466        0.07463423
       -3.25263737       54.99976233        1.57652315       51.32798520        1.62413172        0.40075718        0.07036509
       -3.23261735       52.62011838        1.47007455       49.11974670        1.57920213        0.38524438        0.06585061
       -3.21259733       50.13618331        1.36665130       46.82536219        1.51580982        0.36705434        0.06130565
       -3.19257731       47.72185435        1.27191735       44.60822742        1.43757852        0.34717317        0.05695789
       -3.17255729       45.53788607        1.19078424       42.61840202        1.34906221        0.32663002        0.05300758
       -3.15253727       43.70471540        1.12648227       40.96721382        1.25507089        0.30635212        0.04959630
       -3.13251725       42.28622771        1.08001925       39.71219677        1.16014422        0.28707723        0.04679023
       -3.11249723       41.28653346        1.05009941       38.85428742        1.06823748        0.26932962        0.04457953
       -3.09247721       40.65863399        1.03347220       38.34621803        0.98260634        0.25344588        0.04289153
       -3.07245719       40.32145096        1.02560081       38.10879045        0.90582188        0.23962485        0.04161298
       -3.05243717       40.18049198        1.02149299       38.05057861        0.83982980        0.22797516        0.04061543
       -3.03241715       40.14747384        1.01652500       38.08663867        0.78598877        0.21854284        0.03977856
       -3.01239713       40.15527525        1.00711076       38.15277583        0.74506590        0.21131512        0.03900764
       -2.99237711       40.16620158        0.99111539       38.21342403        0.71720943        0.20620929        0.03824344
       -2.97235709       40.17322696        0.96797386       38.26278396        0.70194216        0.20306221        0.03746477
       -2.95233707       40.19523344        0.93853713       38.32016002        0.69821637        0.20163465        0.03668526
       -2.93231705       40.26807412        0.90471601       38.42122593        0.70454775        0.20163795        0.03594649
       -2.91229703       40.43354128        0.86901818       38.60721623        0.71921647        0.20278101        0.03530940
       -2.89227701       40.72817300        0.83407414       38.91392325        0.74050105        0.20482870        0.03484587
       -2.87225699       41.17348710        0.80222867       39.36206407        0.76690315        0.20765982        0.03463139
       -2.85223697       41.76884365        0.77524507       39.95021703        0.79732792        0.21131413        0.03473951
       -2.83221695       42.48775648        0.75413993       40.65116004        0.83119727        0.21602101        0.03523823
       -2.81219693       43.27806882        0.73914353       41.41204648        0.86848506        0.22220542        0.03618834
       -2.79217691       44.06593825        0.72976710       42.15838970        0.90967003        0.23046819        0.03764322
       -2.77215689       44.76306587        0.72495306       42.80131531        0.95560795        0.24153968        0.03964986
       -2.75213687       45.27615613        0.72328296       43.24708072        1.00733379        0.25620805        0.04225060
       -2.73211685       45.51733907        0.72321844       43.40758235        1.06582249        0.27523018        0.04548560
       -2.71209683       45.41429375        0.72334939       43.21055054        1.13175815        0.29923977        0.04939590
       -2.69207681       44.91902931        0.72262096       42.60833375        1.20537471        0.32867281        0.05402709
       -2.67205679       44.01455300        0.72050877       41.58445988        1.28642272        0.36372891        0.05943270
       -2.65203677       42.71881942        0.71711105       40.15737681        1.37428002        0.40437608        0.06567546
       -2.63201675       41.08536322        0.71313168       38.38085273        1.46816609        0.45038939        0.07282333
       -2.61199673       39.19998457        0.70974144       36.34054559        1.56736418        0.50139622        0.08093713
       -2.59197671       37.17302053        0.70832581       34.14642514        1.67132941        0.55689242        0.09004775
       -2.57195669       35.12729818        0.71015456       31.92123175        1.77958655        0.61620133        0.10012398
       -2.55193667       33.18284192        0.71603414       29.78600181        1.89139769        0.67837180        0.11103648
       -2.53191665       31.44054666        0.72601906       27.84467348        2.00528279        0.74204410        0.12252724
