#  aims_uuid : FC4C6232-86DC-4120-AF99-B9F3EEEC41A6                                
# Angular momentum resolved density for species Has calculated by FHI-aims
# The energy reference for this output is the chemical potential, mu =       -4.845704 eV
#      Energy (eV)         total dos     l= 0              l= 1              l= 2
       -5.15429627        0.01729427        0.01386412        0.00314546        0.00028469
       -5.13427625        0.01785382        0.01436927        0.00319480        0.00028975
       -5.11425623        0.01833334        0.01481276        0.00322708        0.00029349
       -5.09423621        0.01867174        0.01513803        0.00323822        0.00029550
       -5.07421619        0.01881308        0.01529073        0.00322676        0.00029559
       -5.05419617        0.01871705        0.01522893        0.00319419        0.00029392
       -5.03417615        0.01836687        0.01493126        0.00314473        0.00029088
       -5.01415613        0.01777273        0.01440110        0.00308457        0.00028706
       -4.99413611        0.01697009        0.01366590        0.00302104        0.00028314
       -4.97411609        0.01601355        0.01277196        0.00296176        0.00027983
       -4.95409607        0.01496800        0.01177604        0.00291413        0.00027783
       -4.93407605        0.01389916        0.01073613        0.00288519        0.00027784
       -4.91405603        0.01286574        0.00970329        0.00288189        0.00028055
       -4.89403601        0.01191452        0.00871628        0.00291149        0.00028674
       -4.87401599        0.01107873        0.00779964        0.00298184        0.00029724
       -4.85399597        0.01037936        0.00696508        0.00310134        0.00031294
       -4.83397595        0.00982811        0.00621523        0.00327823        0.00033466
       -4.81395593        0.00943086        0.00554861        0.00351922        0.00036303
       -4.79393591        0.00919028        0.00496439        0.00382760        0.00039829
       -4.77391589        0.00910725        0.00446605        0.00420114        0.00044006
       -4.75389587        0.00918083        0.00406340        0.00463027        0.00048717
       -4.73387585        0.00940738        0.00377260        0.00509716        0.00053762
       -4.71385583        0.00977937        0.00361456        0.00557618        0.00058863
       -4.69383581        0.01028477        0.00361208        0.00603581        0.00063688
       -4.67381579        0.01090726        0.00378630        0.00644214        0.00067882
       -4.65379577        0.01162758        0.00415317        0.00676322        0.00071119
       -4.63377575        0.01242543        0.00472037        0.00697364        0.00073142
       -4.61375573        0.01328151        0.00548517        0.00705835        0.00073799
       -4.59373571        0.01417880        0.00643327        0.00701483        0.00073071
       -4.57371569        0.01510268        0.00753877        0.00685328        0.00071063
       -4.55369567        0.01603959        0.00876506        0.00659463        0.00067990
       -4.53367565        0.01697463        0.01006640        0.00626685        0.00064138
       -4.51365563        0.01788887        0.01139015        0.00590047        0.00059824
       -4.49363561        0.01875720        0.01267956        0.00552413        0.00055351
       -4.47361559        0.01954785        0.01387698        0.00516110        0.00050976
       -4.45359557        0.02022382        0.01492756        0.00482731        0.00046895
       -4.43357555        0.02074640        0.01578307        0.00453100        0.00043233
       -4.41355553        0.02107993        0.01640556        0.00427380        0.00040057
       -4.39353551        0.02119689        0.01677028        0.00405276        0.00037386
       -4.37351549        0.02108224        0.01686739        0.00386271        0.00035214
       -4.35349547        0.02073587        0.01670227        0.00369840        0.00033519
       -4.33347545        0.02017312        0.01629420        0.00355610        0.00032282
       -4.31345543        0.01942304        0.01567387        0.00343430        0.00031487
       -4.29343541        0.01852508        0.01488018        0.00333367        0.00031123
       -4.27341539        0.01752487        0.01395667        0.00325639        0.00031181
       -4.25339537        0.01646964        0.01294816        0.00320499        0.00031649
       -4.23337535        0.01540399        0.01189779        0.00318120        0.00032500
       -4.21335533        0.01436647        0.01084461        0.00318497        0.00033690
       -4.19333531        0.01338729        0.00982172        0.00321401        0.00035156
       -4.17331529        0.01248731        0.00885509        0.00326400        0.00036821
       -4.15329527        0.01167844        0.00796306        0.00332933        0.00038605
       -4.13327525        0.01096534        0.00715653        0.00340442        0.00040439
       -4.11325523        0.01034785        0.00643983        0.00348517        0.00042285
       -4.09323521        0.00982379        0.00581200        0.00357030        0.00044149
       -4.07321519        0.00939148        0.00526834        0.00366224        0.00046090
       -4.05319517        0.00905138        0.00480182        0.00376733        0.00048223
       -4.03317515        0.00880672        0.00440420        0.00389545        0.00050707
       -4.01315513        0.00866319        0.00406690        0.00405900        0.00053729
       -3.99313511        0.00862780        0.00378147        0.00427152        0.00057481
       -3.97311509        0.00870753        0.00354004        0.00454612        0.00062137
       -3.95309507        0.00890784        0.00333565        0.00489387        0.00067832
       -3.93307505        0.00923136        0.00316264        0.00532236        0.00074637
       -3.91305503        0.00967688        0.00301693        0.00583446        0.00082548
       -3.89303501        0.01023844        0.00289603        0.00642761        0.00091480
       -3.87301499        0.01090498        0.00279876        0.00709354        0.00101269
       -3.85299497        0.01166031        0.00272465        0.00781885        0.00111681
       -3.83297495        0.01248382        0.00267325        0.00858619        0.00122438
       -3.81295493        0.01335169        0.00264345        0.00937583        0.00133242
       -3.79293491        0.01423871        0.00263324        0.01016748        0.00143799
       -3.77291489        0.01512004        0.00263979        0.01094177        0.00153848
       -3.75289487        0.01597292        0.00265996        0.01168129        0.00163168
       -3.73287485        0.01677796        0.00269081        0.01237122        0.00171594
       -3.71285483        0.01751984        0.00273006        0.01299968        0.00179009
       -3.69283481        0.01818760        0.00277601        0.01355804        0.00185354
       -3.67281479        0.01877445        0.00282714        0.01404114        0.00190617
       -3.65279477        0.01927695        0.00288137        0.01444725        0.00194832
       -3.63277475        0.01969353        0.00293548        0.01477741        0.00198064
       -3.61275473        0.02002249        0.00298484        0.01503381        0.00200385
       -3.59273471        0.02025964        0.00302377        0.01521748        0.00201839
       -3.57271469        0.02039650        0.00304654        0.01532584        0.00202412
       -3.55269467        0.02041974        0.00304860        0.01535105        0.00202009
       -3.53267465        0.02031256        0.00302781        0.01528015        0.00200460
       -3.51265463        0.02005793        0.00298507        0.01509736        0.00197550
       -3.49263461        0.01964332        0.00292435        0.01478818        0.00193079
       -3.47261459        0.01906539        0.00285186        0.01434425        0.00186927
       -3.45259457        0.01833358        0.00277483        0.01376762        0.00179113
       -3.43257455        0.01747125        0.00270017        0.01307289        0.00169820
       -3.41255453        0.01651409        0.00263347        0.01228672        0.00159390
       -3.39253451        0.01550590        0.00257851        0.01144457        0.00148282
       -3.37251449        0.01449300        0.00253736        0.01058566        0.00136998
       -3.35249447        0.01351853        0.00251082        0.00974753        0.00126018
       -3.33247445        0.01261795        0.00249906        0.00896156        0.00115733
       -3.31245443        0.01181668        0.00250200        0.00825049        0.00106419
       -3.29243441        0.01113013        0.00251956        0.00762824        0.00098232
       -3.27241439        0.01056553        0.00255148        0.00710169        0.00091235
       -3.25239437        0.01012459        0.00259698        0.00667330        0.00085431
       -3.23237435        0.00980607        0.00265436        0.00634368        0.00080803
       -3.21235433        0.00960720        0.00272083        0.00611308        0.00077330
       -3.19233431        0.00952381        0.00279246        0.00598140        0.00074995
       -3.17231429        0.00954934        0.00286453        0.00594710        0.00073771
       -3.15229427        0.00967357        0.00293211        0.00600545        0.00073601
       -3.13227425        0.00988164        0.00299079        0.00614705        0.00074380
       -3.11225423        0.01015419        0.00303737        0.00635734        0.00075948
       -3.09223421        0.01046872        0.00307031        0.00661743        0.00078098
       -3.07221419        0.01080185        0.00308984        0.00690603        0.00080598
       -3.05219417        0.01113205        0.00309766        0.00720220        0.00083219
       -3.03217415        0.01144190        0.00309619        0.00748805        0.00085767
       -3.01215413        0.01171937        0.00308764        0.00775074        0.00088099
       -2.99213411        0.01195784        0.00307315        0.00798330        0.00090139
       -2.97211409        0.01215477        0.00305215        0.00818399        0.00091863
       -2.95209407        0.01230966        0.00302227        0.00835454        0.00093286
       -2.93207405        0.01242172        0.00297982        0.00849761        0.00094429
       -2.91205403        0.01248804        0.00292076        0.00861432        0.00095295
       -2.89203401        0.01250281        0.00284189        0.00870240        0.00095853
       -2.87201399        0.01245770        0.00274190        0.00875556        0.00096023
       -2.85199397        0.01234340        0.00262218        0.00876427        0.00095695
       -2.83197395        0.01215192        0.00248685        0.00871764        0.00094743
       -2.81195393        0.01187898        0.00234238        0.00860603        0.00093057
       -2.79193391        0.01152591        0.00219660        0.00842363        0.00090569
       -2.77191389        0.01110058        0.00205754        0.00817026        0.00087278
       -2.75189387        0.01061707        0.00193240        0.00785213        0.00083253
       -2.73187385        0.01009422        0.00182666        0.00748125        0.00078630
       -2.71185383        0.00955330        0.00174367        0.00707369        0.00073594
       -2.69183381        0.00901543        0.00168462        0.00664728        0.00068352
       -2.67181379        0.00849921        0.00164882        0.00621929        0.00063110
       -2.65179377        0.00801908        0.00163413        0.00580447        0.00058047
       -2.63177375        0.00758458        0.00163755        0.00541398        0.00053306
       -2.61175373        0.00720055        0.00165569        0.00505507        0.00048979
       -2.59173371        0.00686796        0.00168525        0.00473152        0.00045119
       -2.57171369        0.00658507        0.00172336        0.00444434        0.00041737
       -2.55169367        0.00634854        0.00176781        0.00419258        0.00038815
       -2.53167365        0.00615420        0.00181712        0.00397395        0.00036313
       -2.51165363        0.00599743        0.00187054        0.00378512        0.00034177
       -2.49163361        0.00587318        0.00192785        0.00362188        0.00032344
       -2.47161359        0.00577584        0.00198907        0.00347928        0.00030749
       -2.45159357        0.00569915        0.00205412        0.00335177        0.00029326
       -2.43157355        0.00563629        0.00212252        0.00323362        0.00028015
       -2.41155353        0.00558030        0.00219321        0.00311945        0.00026763
       -2.39153351        0.00552464        0.00226449        0.00300480        0.00025535
       -2.37151349        0.00546393        0.00233418        0.00288669        0.00024306
       -2.35149347        0.00539448        0.00239992        0.00276384        0.00023073
       -2.33147345        0.00531467        0.00245958        0.00263664        0.00021845
       -2.31145343        0.00522493        0.00251163        0.00250685        0.00020645
       -2.29143341        0.00512750        0.00255541        0.00237706        0.00019504
       -2.27141339        0.00502588        0.00259127        0.00225010        0.00018452
       -2.25139337        0.00492422        0.00262044        0.00212862        0.00017516
       -2.23137335        0.00482668        0.00264475        0.00201478        0.00016716
       -2.21135333        0.00473694        0.00266609        0.00191025        0.00016060
       -2.19133331        0.00465772        0.00268591        0.00181631        0.00015550
       -2.17131329        0.00459050        0.00270466        0.00173406        0.00015178
       -2.15129327        0.00453523        0.00272144        0.00166449        0.00014930
       -2.13127325        0.00449019        0.00273384        0.00160842        0.00014793
       -2.11125323        0.00445200        0.00273821        0.00156632        0.00014748
       -2.09123321        0.00441578        0.00273014        0.00153788        0.00014776
       -2.07121319        0.00437560        0.00270529        0.00152176        0.00014854
       -2.05119317        0.00432524        0.00266023        0.00151544        0.00014957
       -2.03117315        0.00425910        0.00259324        0.00151530        0.00015055
       -2.01115313        0.00417311        0.00250483        0.00151709        0.00015118
       -1.99113311        0.00406557        0.00239783        0.00151657        0.00015118
       -1.97111309        0.00393763        0.00227711        0.00151020        0.00015033
       -1.95109307        0.00379331        0.00214896        0.00149582        0.00014853
       -1.93107305        0.00363905        0.00202019        0.00147305        0.00014581
       -1.91105303        0.00348288        0.00189725        0.00144328        0.00014235
       -1.89103301        0.00333325        0.00178547        0.00140937        0.00013842
       -1.87101299        0.00319781        0.00168846        0.00137498        0.00013437
       -1.85099297        0.00308221        0.00160785        0.00134383        0.00013053
       -1.83097295        0.00298921        0.00154324        0.00131879        0.00012718
       -1.81095293        0.00291830        0.00149248        0.00130138        0.00012444
       -1.79093291        0.00286582        0.00145210        0.00129140        0.00012231
       -1.77091289        0.00282566        0.00141796        0.00128705        0.00012065
       -1.75089287        0.00279049        0.00138594        0.00128536        0.00011919
       -1.73087285        0.00275326        0.00135264        0.00128296        0.00011765
       -1.71085283        0.00270860        0.00131598        0.00127682        0.00011580
       -1.69083281        0.00265393        0.00127553        0.00126492        0.00011349
       -1.67081279        0.00258983        0.00123250        0.00124666        0.00011067
       -1.65079277        0.00251976        0.00118947        0.00122285        0.00010744
       -1.63077275        0.00244900        0.00114970        0.00119533        0.00010397
       -1.61075273        0.00238325        0.00111640        0.00116641        0.00010045
       -1.59073271        0.00232717        0.00109195        0.00113817        0.00009705
       -1.57071269        0.00228325        0.00107738        0.00111198        0.00009388
       -1.55069267        0.00225132        0.00107211        0.00108823        0.00009097
       -1.53067265        0.00222860        0.00107406        0.00106628        0.00008826
       -1.51065263        0.00221043        0.00108004        0.00104474        0.00008565
       -1.49063261        0.00219110        0.00108627        0.00102181        0.00008302
       -1.47061259        0.00216480        0.00108894        0.00099564        0.00008022
       -1.45059257        0.00212630        0.00108457        0.00096459        0.00007715
       -1.43057255        0.00207142        0.00107035        0.00092736        0.00007371
       -1.41055253        0.00199719        0.00104419        0.00088315        0.00006986
       -1.39053251        0.00190197        0.00100482        0.00083160        0.00006555
       -1.37051249        0.00178555        0.00095185        0.00077289        0.00006080
       -1.35049247        0.00164920        0.00088581        0.00070776        0.00005563
       -1.33047245        0.00149581        0.00080819        0.00063748        0.00005014
       -1.31045243        0.00132975        0.00072145        0.00056387        0.00004443
       -1.29043241        0.00115667        0.00062889        0.00048911        0.00003866
       -1.27041239        0.00098294        0.00053434        0.00041560        0.00003300
       -1.25039237        0.00081501        0.00044178        0.00034562        0.00002761
       -1.23037235        0.00065869        0.00035490        0.00028116        0.00002262
       -1.21035233        0.00051852        0.00027668        0.00022369        0.00001816
       -1.19033231        0.00039739        0.00020909        0.00017403        0.00001428
       -1.17031229        0.00029645        0.00015304        0.00013242        0.00001099
       -1.15029227        0.00021527        0.00010843        0.00009855        0.00000829
       -1.13027225        0.00015220        0.00007432        0.00007175        0.00000613
       -1.11025223        0.00010479        0.00004926        0.00005110        0.00000443
       -1.09023221        0.00007028        0.00003157        0.00003558        0.00000313
       -1.07021219        0.00004594        0.00001956        0.00002421        0.00000216
       -1.05019217        0.00002926        0.00001172        0.00001608        0.00000146
       -1.03017215        0.00001816        0.00000679        0.00001042        0.00000096
       -1.01015213        0.00001099        0.00000381        0.00000657        0.00000061
       -0.99013211        0.00000647        0.00000206        0.00000403        0.00000038
       -0.97011209        0.00000371        0.00000108        0.00000240        0.00000023
       -0.95009207        0.00000207        0.00000055        0.00000139        0.00000013
       -0.93007205        0.00000112        0.00000027        0.00000077        0.00000007
       -0.91005203        0.00000059        0.00000013        0.00000042        0.00000004
       -0.89003201        0.00000030        0.00000006        0.00000022        0.00000002
       -0.87001199        0.00000015        0.00000003        0.00000011        0.00000001
       -0.84999197        0.00000007        0.00000001        0.00000005        0.00000001
