# total density of states output by FHI-aims 
# The energy reference for this output is the average chemical potential, mu =       -4.845704 eV
#    Energy (eV)      DOS 
     -5.15429627    196.77738037
     -5.13427625    207.21179956
     -5.11425623    215.48605247
     -5.09423621    221.18481730
     -5.07421619    224.00081230
     -5.05419617    223.78091727
     -5.03417615    220.55438742
     -5.01415613    214.53575883
     -4.99413611    206.10121705
     -4.97411609    195.74376759
     -4.95409607    184.01739869
     -4.93407605    171.48208290
     -4.91405603    158.65961753
     -4.89403601    146.00589145
     -4.87401599    133.89993987
     -4.85399597    122.64594483
     -4.83397595    112.48236988
     -4.81395593    103.59287541
     -4.79393591     96.11578920
     -4.77391589     90.15143864
     -4.75389587     85.76841798
     -4.73387585     83.01026798
     -4.71385583     81.90321727
     -4.69383581     82.46424364
     -4.67381579     84.70754937
     -4.65379577     88.64712127
     -4.63377575     94.29342076
     -4.61375573    101.64312935
     -4.59373571    110.66192224
     -4.57371569    121.26134037
     -4.55369567    133.27212823
     -4.53367565    146.41807856
     -4.51365563    160.29632102
     -4.49363561    174.37140583
     -4.47361559    187.99037231
     -4.45359557    200.42330906
     -4.43357555    210.92858020
     -4.41355553    218.83500977
     -4.39353551    223.62703672
     -4.37351549    225.01560924
     -4.35349547    222.97903133
     -4.33347545    217.76414766
     -4.31345543    209.84742449
     -4.29343541    199.86477699
     -4.27341539    188.52551102
     -4.25339537    176.52769086
     -4.23337535    164.48950172
     -4.21335533    152.90519141
     -4.19333531    142.12722295
     -4.17331529    132.37051874
     -4.15329527    123.73147084
     -4.13327525    116.21396083
     -4.11325523    109.75627609
     -4.09323521    104.25534611
     -4.07321519     99.58701853
     -4.05319517     95.62244530
     -4.03317515     92.24094202
     -4.01315513     89.33930601
     -3.99313511     86.83714837
     -3.97311509     84.67782196
     -3.95309507     82.82516121
     -3.93307505     81.25722808
     -3.91305503     79.95907035
     -3.89303501     78.91668140
     -3.87301499     78.11374921
     -3.85299497     77.53162882
     -3.83297495     77.15175978
     -3.81295493     76.95896489
     -3.79293491     76.94395999
     -3.77291489     77.10390686
     -3.75289487     77.44064807
     -3.73287485     77.95702835
     -3.71285483     78.65220608
     -3.69283481     79.51704720
     -3.67281479     80.53065416
     -3.65279477     81.65891536
     -3.63277475     82.85570399
     -3.61275473     84.06698582
     -3.59273471     85.23759011
     -3.57271469     86.31980943
     -3.55269467     87.28247702
     -3.53267465     88.11892234
     -3.51265463     88.85237020
     -3.49263461     89.53791819
     -3.47261459     90.26103206
     -3.45259457     91.13326398
     -3.43257455     92.28636618
     -3.41255453     93.86598777
     -3.39253451     96.02570042
     -3.37251449     98.92131846
     -3.35249447    102.70457254
     -3.33247445    107.51443879
     -3.31245443    113.46414742
     -3.29243441    120.62243236
     -3.27241439    128.98915962
     -3.25239437    138.46800571
     -3.23237435    148.84179751
     -3.21235433    159.75844198
     -3.19233431    170.73582753
     -3.17231429    181.19172054
     -3.15229427    190.49942965
     -3.13227425    198.06296933
     -3.11225423    203.39874512
     -3.09223421    206.20684434
     -3.07221419    206.41562621
     -3.05219417    204.18876104
     -3.03217415    199.89273498
     -3.01215413    194.03241896
     -2.99213411    187.16964092
     -2.97211409    179.84266348
     -2.95209407    172.50245709
     -2.93207405    165.47570031
     -2.91205403    158.95668453
     -2.89203401    153.02319818
     -2.87201399    147.66693775
     -2.85199397    142.82790647
     -2.83197395    138.42429456
     -2.81195393    134.37324530
     -2.79193391    130.60206289
     -2.77191389    127.05238832
     -2.75189387    123.68091802
     -2.73187385    120.45949098
     -2.71185383    117.37564259
     -2.69183381    114.43309175
     -2.67181379    111.65092042
     -2.65179377    109.06064183
     -2.63177375    106.70151422
     -2.61175373    104.61554386
     -2.59173371    102.84391252
     -2.57171369    101.42580432
     -2.55169367    100.39914880
     -2.53167365     99.80142639
     -2.51165363     99.66820278
     -2.49163361    100.02785426
     -2.47161359    100.89274996
     -2.45159357    102.24915257
     -2.43157355    104.04931506
     -2.41155353    106.20905532
     -2.39153351    108.61251566
     -2.37151349    111.12355271
     -2.35149347    113.60124925
     -2.33147345    115.91619654
     -2.31145343    117.96467106
     -2.29143341    119.67916787
     -2.27141339    121.03510366
     -2.25139337    122.05409869
     -2.23137335    122.80383235
     -2.21135333    123.39345072
     -2.19133331    123.96276168
     -2.17131329    124.66385185
     -2.15129327    125.63565190
     -2.13127325    126.97490368
     -2.11125323    128.70976990
     -2.09123321    130.78356629
     -2.07121319    133.05480749
     -2.05119317    135.31593086
     -2.03117315    137.32779419
     -2.01115313    138.86216691
     -1.99113311    139.74178864
     -1.97111309    139.86821170
     -1.95109307    139.23139000
     -1.93107305    137.90045704
     -1.91105303    136.00036934
     -1.89103301    133.68229993
     -1.87101299    131.09597080
     -1.85099297    128.36981283
     -1.83097295    125.60117368
     -1.81095293    122.85531852
     -1.79093291    120.16988589
     -1.77091289    117.56117831
     -1.75089287    115.02977681
     -1.73087285    112.56459774
     -1.71085283    110.14581211
     -1.69083281    107.74757311
     -1.67081279    105.34128306
     -1.65079277    102.89953422
     -1.63077275    100.40027298
     -1.61075273     97.83039231
     -1.59073271     95.18788387
     -1.57071269     92.48180479
     -1.55069267     89.72958602
     -1.53067265     86.95164185
     -1.51065263     84.16385169
     -1.49063261     81.36920326
     -1.47061259     78.55050749
     -1.45059257     75.66634530
     -1.43057255     72.65207080
     -1.41055253     69.42674421
     -1.39053251     65.90549791
     -1.37051249     62.01541468
     -1.35049247     57.71192402
     -1.33047245     52.99231559
     -1.31045243     47.90335999
     -1.29043241     42.54114074
     -1.27041239     37.04277871
     -1.25039237     31.57139862
     -1.23037235     26.29704979
     -1.21035233     21.37703130
     -1.19033231     16.93902484
     -1.17031229     13.06965434
     -1.15029227      9.80980587
     -1.13027225      7.15660612
     -1.11025223      5.07073232
     -1.09023221      3.48696937
     -1.07021219      2.32574365
     -1.05019217      1.50367975
     -1.03017215      0.94186782
     -1.01015213      0.57127093
     -0.99013211      0.33535242
     -0.97011209      0.19044483
     -0.95009207      0.10458206
     -0.93007205      0.05551204
     -0.91005203      0.02847018
     -0.89003201      0.01410282
     -0.87001199      0.00674502
     -0.84999197      0.00311372
     -0.82997195      0.00138694
     -0.80995193      0.00059593
     -0.78993191      0.00024693
     -0.76991189      0.00009864
     -0.74989187      0.00003798
     -0.72987185      0.00001409
     -0.70985183      0.00000504
     -0.68983180      0.00000174
     -0.66981178      0.00000058
     -0.64979176      0.00000019
     -0.62977174      0.00000008
     -0.60975172      0.00000008
     -0.58973170      0.00000023
     -0.56971168      0.00000072
     -0.54969166      0.00000219
     -0.52967164      0.00000646
     -0.50965162      0.00001829
     -0.48963160      0.00004972
     -0.46961158      0.00012988
     -0.44959156      0.00032592
     -0.42957154      0.00078572
     -0.40955152      0.00181983
     -0.38953150      0.00404933
     -0.36951148      0.00865630
     -0.34949146      0.01777770
     -0.32947144      0.03507628
     -0.30945142      0.06648847
     -0.28943140      0.12108042
     -0.26941138      0.21183427
     -0.24939136      0.35605185
     -0.22937134      0.57494332
     -0.20935132      0.89193159
     -0.18933130      1.32932999
     -0.16931128      1.90339446
     -0.14929126      2.61830079
     -0.12927124      3.46023038
     -0.10925122      4.39324306
     -0.08923120      5.35870920
     -0.06921118      6.27956977
     -0.04919116      7.06959172
     -0.02917114      7.64633856
     -0.00915112      7.94524829
      0.01086890      7.93151627
      0.03088892      7.60676267
      0.05090894      7.00872030
      0.07092896      6.20402784
      0.09094898      5.27603502
      0.11096900      4.31071010
      0.13098902      3.38393517
      0.15100904      2.55271318
      0.17102906      1.85145817
      0.19104908      1.29311395
      0.21106910      0.87379716
      0.23108912      0.57921338
      0.25110914      0.39122335
      0.27112916      0.29342743
      0.29114918      0.27522371
      0.31116920      0.33426792
      0.33118922      0.47752725
      0.35120924      0.72119908
      0.37122926      1.08975491
      0.39124928      1.61437684
      0.41126930      2.33114422
      0.43128932      3.27948375
      0.45130934      4.50152260
      0.47132936      6.04293209
      0.49134938      7.95549713
      0.51136940     10.30097297
      0.53138942     13.15494886
      0.55140944     16.60874433
      0.57142946     20.76721206
      0.59144948     25.74100155
      0.61146950     31.63335909
      0.63148952     38.52352258
      0.65150954     46.45051981
      0.67152956     55.40192326
      0.69154958     65.31134349
      0.71156960     76.06618125
      0.73158962     87.52403530
      0.75160964     99.53321663
      0.77162966    111.95110472
      0.79164968    124.65426238
      0.81166970    137.53632593
      0.83168972    150.49311091
      0.85170974    163.39815004
      0.87172976    176.07501452
      0.89174978    188.27452076
      0.91176980    199.66493033
      0.93178982    209.84149883
      0.95180984    218.35845613
      0.97182986    224.78212977
      0.99184988    228.75906241
      1.01186990    230.08845869
      1.03188992    228.78515890
      1.05190994    225.11863563
      1.07192996    219.61600061
      1.09194998    213.02276191
      1.11197000    206.22321528
      1.13199002    200.13112452
      1.15201004    195.56850165
      1.17203006    193.15380840
      1.19205008    193.21964196
      1.21207010    195.77416107
      1.23209012    200.51167325
      1.25211014    206.86825562
      1.27213016    214.11036169
      1.29215018    221.43971664
      1.31217020    228.09696980
      1.33219022    233.44904242
      1.35221024    237.04969771
      1.37223026    238.66824708
      1.39225028    238.28644477
      1.41227030    236.06791669
      1.43229032    232.30768657
      1.45231034    227.37143306
      1.47233036    221.63493240
      1.49235038    215.43353949
      1.51237040    209.02939387
      1.53239042    202.60039837
      1.55241044    196.25040199
      1.57243046    190.03535082
      1.59245048    183.99662379
      1.61247050    178.19139896
      1.63249052    172.71121683
      1.65251054    167.68361613
      1.67253056    163.25671545
      1.69255058    159.57137223
      1.71257060    156.72867764
      1.73259062    154.76129769
      1.75261064    153.61565461
      1.77263066    153.14894500
      1.79265068    153.14154819
      1.81267070    153.32234886
      1.83269072    153.40234825
      1.85271074    153.11079101
      1.87273076    152.22786179
      1.89275078    150.60877444
      1.91277080    148.19573771
      1.93279082    145.01664028
      1.95281084    141.17190944
      1.97283086    136.81321727
      1.99285088    132.11891614
      2.01287090    127.27096051
      2.03289092    122.43675737
      2.05291094    117.75743255
      2.07293096    113.34212376
      2.09295098    109.26669873
      2.11297100    105.57499251
      2.13299102    102.28112946
      2.15301104     99.37235079
      2.17303106     96.81255085
      2.19305108     94.54709590
      2.21307110     92.50933880
      2.23309112     90.62867549
      2.25311114     88.83930389
      2.27313116     87.08837402
      2.29315118     85.34218418
      2.31317120     83.58949994
      2.33319122     81.84175296
      2.35321124     80.13050547
      2.37323126     78.50288422
      2.39325128     77.01562711
      2.41327130     75.72810618
      2.43329132     74.69448323
      2.45331134     73.95526628
      2.47333136     73.52900861
      2.49335138     73.40551155
      2.51337140     73.54227921
      2.53339142     73.86578130
      2.55341144     74.27819936
      2.57343146     74.66899183
      2.59345148     74.92931388
      2.61347150     74.96662253
      2.63349152     74.71701286
      2.65351154     74.15387881
      2.67353156     73.29287425
      2.69355158     72.19418317
      2.71357160     70.96326311
      2.73359162     69.75041276
      2.75361164     68.74815082
      2.77363166     68.18421256
      2.79365168     68.30767755
      2.81367170     69.36667191
      2.83369172     71.57807543
      2.85371174     75.09213193
      2.87373176     79.95708847
      2.89375178     86.09036122
      2.91377180     93.26287287
      2.93379182    101.10200554
      2.95381184    109.11612376
      2.97383186    116.74008278
      2.99385188    123.39701890
      3.01387190    128.56778822
      3.03389192    131.85667824
      3.05391194    133.04144672
      3.07393196    132.09792788
      3.09395198    129.19422432
      3.11397200    124.65584763
      3.13399202    118.90942195
      3.15401204    112.41694891
      3.17403206    105.61388519
      3.19405208     98.86211906
      3.21407210     92.42415379
      3.23409212     86.45900915
      3.25411214     81.03533525
      3.27413216     76.15435549
      3.29415218     71.77499678
      3.31417220     67.83546466
      3.33419222     64.26847055
      3.35421224     61.01008124
      3.37423226     58.00386253
      3.39425228     55.20237919
      3.41427230     52.56753331
      3.43429232     50.07031075
      3.45431234     47.68984789
      3.47433236     45.41159736
      3.49435238     43.22466748
      3.51437240     41.11881787
      3.53439242     39.08180310
      3.55441244     37.09764333
      3.57443246     35.14607005
      3.59445248     33.20307114
      3.61447250     31.24232587
      3.63449252     29.23739241
      3.65451254     27.16464022
      3.67453256     25.00690396
      3.69455258     22.75757030
      3.71457260     20.42437644
      3.73459262     18.03184132
      3.75461264     15.62122982
      3.77463266     13.24739653
      3.79465268     10.97267001
      3.81467270      8.85883069
      3.83469272      6.95885748
      3.85471274      5.31022538
      3.87473276      3.93109714
      3.89475278      2.81994543
      3.91477280      1.95826611
      3.93479282      1.31538113
      3.95481284      0.85404680
      3.97483286      0.53568579
      3.99485288      0.32443221
      4.01487290      0.18964531
      4.03489292      0.10695746
      4.05491294      0.05818467
      4.07493296      0.03052714
      4.09495298      0.01545686
      4.11497300      0.00758764
      4.13499302      0.00370370
      4.15501304      0.00202312
      4.17503306      0.00170846
      4.19505308      0.00260794
      4.21507310      0.00520930
      4.23509312      0.01080028
      4.25511314      0.02184214
      4.27513316      0.04255840
      4.29515318      0.07970778
      4.31517320      0.14343515
      4.33519322      0.24797936
      4.35521324      0.41188327
      4.37523326      0.65724951
      4.39525328      1.00758956
      4.41527330      1.48400129
      4.43529332      2.09982025
      4.45531334      2.85448118
      4.47533336      3.72794485
      4.49535338      4.67744870
      4.51537340      5.63827065
      4.53539342      6.52950589
      4.55541344      7.26461614
      4.57543346      7.76504629
      4.59545348      7.97401500
      4.61547350      7.86715991
      4.63549352      7.45731000
      4.65551354      6.79214908
      4.67553356      5.94545164
      4.69555358      5.00426818
      4.71557360      4.05535135
      4.73559362      3.17399708
      4.75561364      2.41745981
      4.77563366      1.82361422
      4.79565368      1.41409478
      4.81567370      1.20015494
      4.83569372      1.18912658
      4.85571374      1.38957869
      4.87573376      1.81388048
      4.89575378      2.47764804
      4.91577380      3.39631902
      4.93579382      4.57974538
      4.95581384      6.02615311
      4.97583386      7.71703477
      4.99585388      9.61446467
      5.01587390     11.66192186
      5.03589392     13.78899814
      5.05591394     15.91946483
      5.07593396     17.98127004
      5.09595398     19.91638396
      5.11597400     21.68822447
      5.13599402     23.28479668
      5.15601404     24.71662295
      5.17603406     26.00981083
      5.19605408     27.19587769
      5.21607410     28.30087231
      5.23609412     29.33663984
      5.25611414     30.29665588
      5.27613416     31.15777867
      5.29615418     31.88776893
      5.31617420     32.45684772
      5.33619422     32.85029518
      5.35621424     33.07849705
      5.37623426     33.18116867
      5.39625428     33.22376746
      5.41627430     33.28612151
      5.43629432     33.44556313
      5.45631434     33.75870880
      5.47633436     34.24684013
      5.49635438     34.88923524
      5.51637440     35.62682448
      5.53639442     36.37571737
      5.55641444     37.04732161
      5.57643446     37.56985811
      5.59645448     37.90569585
      5.61647450     38.06020114
      5.63649452     38.08026351
      5.65651454     38.04348567
      5.67653456     38.04130638
      5.69655458     38.16043786
      5.71657460     38.46678884
      5.73659462     38.99481919
      5.75661464     39.74360170
      5.77663466     40.67932124
      5.79665468     41.74287166
      5.81667470     42.86068631
      5.83669472     43.95681703
      5.85671474     44.96435914
      5.87673476     45.83448820
      5.89675478     46.54164355
      5.91677480     47.08387150
      5.93679482     47.47811579
      5.95681484     47.75128117
      5.97683486     47.92898973
      5.99685488     48.02476494
      6.01687490     48.03257520
      6.03689492     47.92505294
      6.05691494     47.65834481
      6.07693496     47.18278893
      6.09695498     46.45697634
      6.11697500     45.46174718
      6.13699502     44.21060479
      6.15701504     42.75389698
      6.17703506     41.17561598
      6.19705508     39.58335438
      6.21707510     38.09339300
      6.23709512     36.81380994
      6.25711514     35.82879316
      6.27713516     35.18705081
      6.29715518     34.89644543
      6.31717520     34.92585413
      6.33719522     35.21393615
      6.35721524     35.68319281
      6.37723526     36.25670085
      6.39725528     36.87444062
      6.41727530     37.50635462
      6.43729532     38.16009154
      6.45731534     38.88255693
      6.47733536     39.75554471
      6.49735538     40.88655499
      6.51737540     42.39627700
      6.53739542     44.40421059
      6.55741544     47.01373300
      6.57743546     50.29780967
      6.59745548     54.28657735
      6.61747550     58.95810162
      6.63749552     64.23353247
      6.65751554     69.97751760
      6.67753556     76.00412417
      6.69755558     82.08789107
      6.71757560     87.97924007
      6.73759562     93.42341706
      6.75761564     98.18224396
      6.77763566    102.05787853
      6.79765568    104.91718749
      6.81767570    106.71422170
      6.83769572    107.50703767
