#  aims_uuid : FC4C6232-86DC-4120-AF99-B9F3EEEC41A6                                
# Angular momentum resolved density for species Moas calculated by FHI-aims
# The energy reference for this output is the vacuum level 
#      Energy (eV)         total dos     l= 0              l= 1              l= 2              l= 3              l= 4
      -10.00000000       30.54392218        2.27449668        4.81691531       23.06280113        0.33473939        0.05496967
       -9.97997998       32.05568362        2.69582596        5.22410258       23.71109460        0.36582769        0.05883279
       -9.95995996       33.32022151        3.11168462        5.57839153       24.17055257        0.39747941        0.06211338
       -9.93993994       34.25803252        3.49800232        5.85274944       24.41490123        0.42774381        0.06463574
       -9.91991992       34.79808039        3.83067637        6.02447822       24.42198775        0.45468918        0.06624888
       -9.89989990       34.89067382        4.08844756        6.07851569       24.18018055        0.47668041        0.06684960
       -9.87987988       34.51741680        4.25554458        6.00953351       23.69335082        0.49258720        0.06640069
       -9.85985986       33.69590252        4.32361239        5.82246895       22.98299685        0.50188415        0.06494018
       -9.83983984       32.47821284        4.29258020        5.53149724       22.08692378        0.50463196        0.06257966
       -9.81981982       30.94380983        4.17034362        5.15778114       21.05483473        0.50135820        0.05949214
       -9.79979980       29.18861109        3.97137324        4.72653900       19.94192954        0.49287728        0.05589203
       -9.77977978       27.31264785        3.71455416        4.26401843       18.80196496        0.48009907        0.05201123
       -9.75975976       25.40867011        3.42066777        3.79486869       17.68118690        0.46387174        0.04807501
       -9.73973974       23.55354065        3.10993498        3.34022725       16.61420607        0.44489084        0.04428150
       -9.71971972       21.80348661        2.79996989        2.91663906       15.62240395        0.42368672        0.04078700
       -9.69969970       20.19347370        2.50437467        2.53576088       14.71495698        0.40068244        0.03769872
       -9.67967968       18.74027023        2.23207758        2.20469382       13.89212568        0.37629752        0.03507563
       -9.65965966       17.44823571        1.98739684        1.92673508       13.15010437        0.35106269        0.03293674
       -9.63963964       16.31652121        1.77071748        1.70233545       12.48648356        0.32570901        0.03127571
       -9.61961962       15.34622461        1.57959776        1.53007536       11.90527063        0.30120133        0.03007952
       -9.59959960       14.54612873        1.41007964        1.40751896       11.42048200        0.27870023        0.02934790
       -9.57957958       13.93597465        1.25796719        1.33186155       11.05758064        0.25945483        0.02911044
       -9.55955956       13.54675082        1.11986201        1.30034301       10.85246048        0.24464726        0.02943806
       -9.53953954       13.41811000        0.99380440        1.31044716       10.84818835        0.23522339        0.03044670
       -9.51951952       13.59360781        0.87945502        1.35993557       11.09017539        0.23174938        0.03229244
       -9.49949950       14.11482819        0.77784646        1.44676839       11.62072589        0.23432894        0.03515851
       -9.47947948       15.01550934        0.69081635        1.56894747       12.47390824        0.24260139        0.03923589
       -9.45945946       16.31649907        0.62028534        1.72429150       13.67140222        0.25582051        0.04469949
       -9.43943944       18.02186289        0.56755437        1.91013573       15.21949823        0.27299285        0.05168170
       -9.41941942       20.11595392        0.53276881        2.12295572       17.10694616        0.29303826        0.06024496
       -9.39939940       22.56097150        0.51464286        2.35795004       19.30309450        0.31492948        0.07035463
       -9.37937938       25.29465342        0.51047347        2.60866845       21.75588234        0.33777473        0.08185443
       -9.35935936       28.22826844        0.51641489        2.86681661       24.38976403        0.36082529        0.09444762
       -9.33933934       31.24580533        0.52794215        3.12237616       27.10438326        0.38341485        0.10768890
       -9.31931932       34.20584354        0.54041048        3.36413270       29.77544704        0.40486034        0.12099298
       -9.29929930       36.94767477        0.54961351        3.58060599       32.25942245        0.42436829        0.13366452
       -9.27927928       39.30260776        0.55225412        3.76125317       34.40315855        0.44099037        0.14495155
       -9.25925926       41.11009812        0.54626236        3.89771043       36.05834918        0.45365702        0.15411912
       -9.23923924       42.23676327        0.53092227        3.98479409       37.09921910        0.46129365        0.16053416
       -9.21921922       42.59501849        0.50680175        4.02102084       37.44045089        0.46299722        0.16374779
       -9.19919920       42.15752086        0.47551268        4.00852336       37.05169439        0.45823082        0.16355961
       -9.17917918       40.96410504        0.43935672        3.95239260       35.96531853        0.44698650        0.16005069
       -9.15915916       39.11934284        0.40092893        3.85962057       34.27534283        0.42987283        0.15357768
       -9.13913914       36.78082773        0.36275083        3.73790051       32.12734616        0.40810157        0.14472866
       -9.11911912       34.14018873        0.32698687        3.59454366       29.70103813        0.38337149        0.13424856
       -9.09909910       31.40015504        0.29526943        3.43570402       27.18856440        0.35766949        0.12294770
       -9.07907908       28.75145264        0.26862786        3.26599746       24.77219379        0.33302499        0.11160854
       -9.05905906       26.35294191        0.24749706        3.08849993       22.60477972        0.31126039        0.10090482
       -9.03903904       24.31745520        0.23177559        2.90503787       20.79552152        0.29377750        0.09134272
       -9.01901902       22.70459748        0.22091072        2.71665234       19.40239470        0.28140992        0.08322980
       -8.99899900       21.52061865        0.21400005        2.52411692       18.43147167        0.27435817        0.07667185
       -8.97897898       20.72452549        0.20990870        2.32840634       17.84240639        0.27220943        0.07159463
       -8.95895896       20.23894690        0.20740137        2.13103826       17.55869149        0.27403169        0.06778408
       -8.93893894       19.96390771        0.20528199        1.93424151       17.48092376        0.27852308        0.06493736
       -8.91891892       19.79158850        0.20252497        1.74094068       17.50121377        0.28419259        0.06271649
       -8.89889890       19.62031660        0.19837729        1.55458452       17.51700915        0.28954802        0.06079761
       -8.87887888       19.36638190        0.19241497        1.37887421       17.44291253        0.29326971        0.05891048
       -8.85885886       18.97270879        0.18454706        1.21745840       17.21948488        0.29435290        0.05686554
       -8.83883884       18.41384623        0.17497343        1.07365075       16.81844743        0.29220684        0.05456778
       -8.81881882       17.69710039        0.16411159        0.95020017       16.24406725        0.28670301        0.05201838
       -8.79879880       16.85992203        0.15251106        0.84911874       15.53081671        0.27816987        0.04930565
       -8.77877878       15.96391647        0.14077110        0.77156148       14.73766092        0.26733601        0.04658696
       -8.75875876       15.08611672        0.12947177        0.71775999       13.93959230        0.25522922        0.04406345
       -8.73873874       14.30846249        0.11912332        0.68703255       13.21731215        0.24304479        0.04194968
       -8.71871872       13.70671256        0.11013588        0.67790796       12.64622656        0.23200100        0.04044115
       -8.69869870       13.34019658        0.10281033        0.68839425       12.28610623        0.22320217        0.03968359
       -8.67867868       13.24379547        0.09735003        0.71638761       12.17278193        0.21752740        0.03974850
       -8.65865866       13.42328552        0.09388979        0.76015763       12.31306137        0.21555796        0.04061877
       -8.63863864       13.85471560        0.09253318        0.81878361       12.68366414        0.21754707        0.04218760
       -8.61861862       14.48789075        0.09338389        0.89238027       13.23442773        0.22342771        0.04427116
       -8.59859860       15.25341735        0.09655456        0.98196521       13.89541631        0.23284750        0.04663376
       -8.57857858       16.07222554        0.10214065        1.08889616       14.58694922        0.24521801        0.04902151
       -8.55855856       16.86610375        0.11015677        1.21393178       15.23104788        0.25976840        0.05119894
       -8.53853854       17.56761674        0.12044825        1.35611409       15.76247261        0.27559932        0.05298246
       -8.51851852       18.12787378        0.13260430        1.51178492       16.13748115        0.29173896        0.05426445
       -8.49849850       18.52098215        0.14590702        1.67408546       16.33875912        0.30720690        0.05502366
       -8.47847848       18.74462932        0.15934726        1.83321745       16.37565387        0.32109074        0.05531999
       -8.45845846       18.81698634        0.17172304        1.97756708       16.27978658        0.33263448        0.05527516
       -8.43843844       18.77085253        0.18181213        2.09554940       16.09711806        0.34132933        0.05504361
       -8.41841842       18.64648286        0.18858484        2.17779154       15.87833628        0.34698938        0.05478083
       -8.39839840       18.48471073        0.19140453        2.21911838       15.66978006        0.34979141        0.05461635
       -8.37837838       18.32174950        0.19015988        2.21979910       15.50689079        0.35026182        0.05463790
       -8.35835836       18.18649629        0.18528718        2.18567624       15.41143769        0.34920531        0.05488987
       -8.33833834       18.10043419        0.17767022        2.12709476       15.39269815        0.34758557        0.05538549
       -8.31831832       18.07953550        0.16844062        2.05688830       15.45169490        0.34638335        0.05612833
       -8.29829830       18.13708725        0.15873128        1.98795435       15.58680069        0.34646476        0.05713617
       -8.27827828       18.28620214        0.14944958        1.93106532       15.79873692        0.34849054        0.05845979
       -8.25825826       18.54096728        0.14113028        1.89347670       16.09328540        0.35288391        0.06019099
       -8.23823824       18.91566016        0.13390278        1.87863235       16.48081105        0.35985672        0.06245725
       -8.21821822       19.42209493        0.12757174        1.88691813       16.97272562        0.36947503        0.06540440
       -8.19819820       20.06577564        0.12177633        1.91709157       17.57600082        0.38173499        0.06917194
       -8.17817818       20.84194607        0.11617240        1.96782331       18.28746488        0.39661849        0.07386698
       -8.15815816       21.73270971        0.11057902        2.03878261       19.08969827        0.41410727        0.07954253
       -8.13813814       22.70612454        0.10504704        2.13088118       19.94986427        0.43414901        0.08618305
       -8.11811812       23.71765531        0.09983557        2.24559408       20.82194234        0.45658558        0.09369773
       -8.09809810       24.71378359        0.09531284        2.38360474       21.65187950        0.48106667        0.10191984
       -8.07807808       25.63713568        0.09182106        2.54326874       22.38445674        0.50697906        0.11061008
       -8.05805806       26.43230935        0.08955387        2.71948069       22.97038960        0.53342143        0.11946376
       -8.03803804       27.05164965        0.08848800        2.90342976       23.37236190        0.55924631        0.12812368
       -8.01801802       27.46041090        0.08839075        3.08347240       23.56916945        0.58317620        0.13620210
       -7.99799800       27.64088758        0.08889970        3.24701142       23.55768025        0.60398192        0.14331429
       -7.97797798       27.59511054        0.08964860        3.38295267       23.35269495        0.62069199        0.14912233
       -7.95795796       27.34562128        0.09040024        3.48411036       22.98494040        0.63278736        0.15338292
       -7.93793794       26.93379379        0.09114630        3.54890892       22.49741960        0.64033070        0.15598828
       -7.91791792       26.41532969        0.09214524        3.58188968       21.94031964        0.64398782        0.15698731
       -7.89789790       25.85298876        0.09388646        3.59282714       21.36477797        0.64491978        0.15657740
       -7.87787788       25.30727732        0.09698837        3.59460920       20.81606094        0.64455490        0.15506391
       -7.85785786       24.82651605        0.10205290        3.60034711       20.32704014        0.64428188        0.15279403
       -7.83783784       24.43819854        0.10950823        3.62037689       19.91310214        0.64513097        0.15008030
       -7.81781782       24.14360998        0.11947290        3.65984984       19.56963368        0.64751982        0.14713374
       -7.79779780       23.91719585        0.13167001        3.71747787       19.27289177        0.65113072        0.14402548
       -7.77777778       23.71120836        0.14541077        3.78573159       18.98442072        0.65495692        0.14068836
       -7.75775776       23.46493551        0.15965423        3.85244580       18.65836345        0.65751360        0.13695844
       -7.73773774       23.11666592        0.17313532        3.90345264       18.25026684        0.65716613        0.13264498
       -7.71771772       22.61580848        0.18453981        3.92562077       17.72554203        0.65249703        0.12760884
       -7.69769770       21.93251254        0.19269407        3.90959529       17.06577279        0.64262307        0.12182732
       -7.67767768       21.06276874        0.19673330        3.85163106       16.27158684        0.62738949        0.11542805
       -7.65765766       20.02813806        0.19621629        3.75416291       15.36167208        0.60740293        0.10868385
       -7.63763764       18.87060851        0.19116662        3.62508582       14.36847621        0.58390834        0.10197151
       -7.61761762       17.64421516        0.18203809        3.47602903       13.33188823        0.55855332        0.09570649
       -7.59759760       16.40566072        0.16961864        3.32011490       12.29255203        0.53310498        0.09027016
       -7.57757758       15.20610967        0.15489966        3.16974659       11.28633156        0.50918550        0.08594637
       -7.55755756       14.08568516        0.13893993        3.03487407       10.34091577        0.48807597        0.08287942
       -7.53753754       13.07123580        0.12274836        2.92199489        9.47482056        0.47061198        0.08106001
       -7.51751752       12.17699268        0.10719886        2.83392729        8.69835901        0.45716905        0.08033848
       -7.49749750       11.40709223        0.09297925        2.77021798        8.01571573        0.44771906        0.08046020
       -7.47747748       10.75874772        0.08056880        2.72795536        7.42717706        0.44193219        0.08111431
       -7.45745746       10.22508358        0.07023669        2.70275281        6.93080693        0.43930091        0.08198623
       -7.43743744        9.79713088        0.06205581        2.68972033        6.52328170        0.43926807        0.08280497
       -7.41741742        9.46498597        0.05592963        2.68431164        6.20002192        0.44134430        0.08337846
       -7.39739740        9.21845945        0.05163173        2.68298590        5.95502817        0.44520065        0.08361300
       -7.37737738        9.04760882        0.04885690        2.68364344        5.78087276        0.45072037        0.08351534
       -7.35735736        8.94340148        0.04727992        2.68579647        5.66915097        0.45799499        0.08317913
       -7.33733734        8.89853399        0.04661513        2.69044136        5.61146196        0.46725702        0.08275853
       -7.31731732        8.90827787        0.04666907        2.69963159        5.60078732        0.47875611        0.08243378
       -7.29729730        8.97120412        0.04737921        2.71581105        5.63303593        0.49260405        0.08237387
       -7.27727728        9.08972648        0.04883469        2.74103725        5.70852416        0.50862872        0.08270166
       -7.25725726        9.27049761        0.05127733        2.77626948        5.83320249        0.52628152        0.08346679
       -7.23723724        9.52469607        0.05508227        2.82089084        6.01946051        0.54463208        0.08463037
       -7.21721722        9.86813423        0.06071779        2.87256901        6.28632332        0.56246028        0.08606383
       -7.19719720       10.32097294        0.06868394        2.92746136        6.65883898        0.57842638        0.08756228
       -7.17717718       10.90677958        0.07943218        2.98067646        7.16652417        0.59127667        0.08887010
       -7.15715716       11.65080906        0.09327411        3.02685505        7.84093227        0.60003288        0.08971474
       -7.13713714       12.57770365        0.11029468        3.06074694        8.71269520        0.60412314        0.08984369
       -7.11711712       13.70914401        0.13029153        3.07772088        9.80863761        0.60343488        0.08905912
       -7.09709710       15.06211672        0.15276266        3.07421306       11.14959876        0.59829652        0.08724572
       -7.07707708       16.64822771        0.17695614        3.04815289       12.74931742        0.58941311        0.08438814
       -7.05705706       18.47390449        0.20197932        2.99938066       14.61418469        0.57778403        0.08057580
       -7.03703704       20.54063184        0.22694518        2.93000023       16.74307283        0.56461939        0.07599421
       -7.01701702       22.84393881        0.25111731        2.84453551       19.12612864        0.55125394        0.07090340
       -6.99699700       25.37004027        0.27401037        2.74973095       21.74164978        0.53904349        0.06560567
       -6.97697698       28.08993715        0.29541359        2.65388853       24.55099948        0.52922885        0.06040671
       -6.95695696       30.95215654        0.31532793        2.56576041       27.49272472        0.52276760        0.05557588
       -6.93693694       33.87663087        0.33383737        2.49317415       30.47814939        0.52015772        0.05131224
