# total density of states output by FHI-aims 
# The energy reference for this output is the average chemical potential, mu =       -4.423566 eV
#    Energy (eV)      DOS 
     -5.57643438    215.57142600
     -5.55641436    219.89466767
     -5.53639434    221.37015723
     -5.51637432    219.92084097
     -5.49635430    215.64809710
     -5.47633428    208.82535230
     -5.45631426    199.86818749
     -5.43629424    189.28742991
     -5.41627422    177.63504795
     -5.39625420    165.45308625
     -5.37623418    153.23359704
     -5.35621416    141.39362351
     -5.33619414    130.26524406
     -5.31617412    120.09775129
     -5.29615410    111.06780547
     -5.27613408    103.29369598
     -5.25611406     96.85095645
     -5.23609404     91.78770053
     -5.21607402     88.13864804
     -5.19605400     85.93683701
     -5.17603398     85.22178554
     -5.15601396     86.04281380
     -5.13599394     88.45661851
     -5.11597392     92.51894419
     -5.09595390     98.27099527
     -5.07593388    105.72174920
     -5.05591386    114.82748444
     -5.03589384    125.46990941
     -5.01587382    137.43475005
     -4.99585380    150.39383357
     -4.97583378    163.89536599
     -4.95581376    177.36836828
     -4.93579374    190.14690866
     -4.91577372    201.51695461
     -4.89575370    210.78344365
     -4.87573368    217.34885195
     -4.85571366    220.78933137
     -4.83569364    220.91260496
     -4.81567362    217.78446144
     -4.79565360    211.71741843
     -4.77563358    203.22390361
     -4.75561356    192.94432157
     -4.73559354    181.56516505
     -4.71557352    169.74270634
     -4.69555350    158.04419232
     -4.67553348    146.91254800
     -4.65551346    136.65450630
     -4.63549344    127.44757912
     -4.61547342    119.35920425
     -4.59545340    112.37159595
     -4.57543338    106.40745670
     -4.55541336    101.35372811
     -4.53539334     97.08213517
     -4.51537332     93.46604067
     -4.49535330     90.39319447
     -4.47533328     87.77377331
     -4.45531326     85.54315737
     -4.43529324     83.65945824
     -4.41527322     82.09682548
     -4.39525320     80.83661730
     -4.37523318     79.85911149
     -4.35521316     79.13819918
     -4.33519314     78.64044045
     -4.31517312     78.32833590
     -4.29515310     78.16625553
     -4.27513308     78.12667978
     -4.25511306     78.19448530
     -4.23509304     78.36783163
     -4.21507302     78.65539756
     -4.19505300     79.07082905
     -4.17503298     79.62596457
     -4.15501296     80.32458188
     -4.13499294     81.15814381
     -4.11497292     82.10449118
     -4.09495290     83.12981520
     -4.07493288     84.19364731
     -4.05491286     85.25607875
     -4.03489284     86.28599707
     -4.01487282     87.26886879
     -3.99485280     88.21260731
     -3.97483278     89.15042848
     -3.95481276     90.14030230
     -3.93479274     91.26150135
     -3.91477272     92.60953440
     -3.89475270     94.29111007
     -3.87473268     96.42047164
     -3.85471266     99.11747224
     -3.83469264    102.50638052
     -3.81467262    106.71309748
     -3.79465260    111.85778249
     -3.77463258    118.04028909
     -3.75461256    125.31748667
     -3.73459254    133.67429304
     -3.71457252    142.99344081
     -3.69455250    153.03168468
     -3.67453248    163.41123939
     -3.65451246    173.63386080
     -3.63449244    183.12090283
     -3.61447242    191.27655964
     -3.59445240    197.56488855
     -3.57443238    201.58615431
     -3.55441236    203.13639247
     -3.53439234    202.23676817
     -3.51437232    199.12582833
     -3.49435230    194.21632199
     -3.47433228    188.02639928
     -3.45431226    181.10036127
     -3.43429224    173.93533547
     -3.41427222    166.92724792
     -3.39425220    160.34345406
     -3.37423218    154.32233231
     -3.35421216    148.89408307
     -3.33419214    144.01342569
     -3.31417212    139.59443262
     -3.29415210    135.53995595
     -3.27413208    131.76179036
     -3.25411206    128.19139817
     -3.23409204    124.78348921
     -3.21407202    121.51548772
     -3.19405200    118.38521035
     -3.17403198    115.40775699
     -3.15401196    112.61159011
     -3.13399194    110.03357974
     -3.11397192    107.71335568
     -3.09395190    105.68808765
     -3.07393188    103.98914537
     -3.05391186    102.64159660
     -3.03389184    101.66631445
     -3.01387182    101.08315482
     -2.99385180    100.91292875
     -2.97383178    101.17617845
     -2.95381176    101.88802477
     -2.93379174    103.05006026
     -2.91377172    104.64166851
     -2.89375170    106.61365061
     -2.87373167    108.88645423
     -2.85371165    111.35394309
     -2.83369163    113.89213579
     -2.81367161    116.37129131
     -2.79365159    118.66941931
     -2.77363157    120.68561317
     -2.75361155    122.35210064
     -2.73359153    123.64410800
     -2.71357151    124.58633594
     -2.69355149    125.25426030
     -2.67353147    125.76814589
     -2.65351145    126.27819934
     -2.63349143    126.94099036
     -2.61347141    127.88988937
     -2.59345139    129.20498315
     -2.57343137    130.88961852
     -2.55341135    132.86042369
     -2.53339133    134.95503323
     -2.51337131    136.95733770
     -2.49335129    138.63521274
     -2.47333127    139.78199262
     -2.45331125    140.25177122
     -2.43329123    139.98041498
     -2.41327121    138.98836764
     -2.39325119    137.36647409
     -2.37323117    135.25041468
     -2.35321115    132.79156077
     -2.33319113    130.13164319
     -2.31317111    127.38606170
     -2.29315109    124.63715594
     -2.27313107    121.93566760
     -2.25311105    119.30691902
     -2.23309103    116.75817449
     -2.21307101    114.28480839
     -2.19305099    111.87448145
     -2.17303097    109.50976977
     -2.15301095    107.17020510
     -2.13299093    104.83450318
     -2.11297091    102.48320333
     -2.09295089    100.10138859
     -2.07293087     97.68083655
     -2.05291085     95.22091180
     -2.03289083     92.72767581
     -2.01287081     90.21097261
     -1.99285079     87.67961296
     -1.97283077     85.13522360
     -1.95281075     82.56582238
     -1.93279073     79.94061261
     -1.91277071     77.20768151
     -1.89275069     74.29606134
     -1.87273067     71.12289175
     -1.85271065     67.60530204
     -1.83269063     63.67537041
     -1.81267061     59.29547212
     -1.79265059     54.47083707
     -1.77263057     49.25640369
     -1.75261055     43.75607373
     -1.73259053     38.11401507
     -1.71257051     32.49933959
     -1.69255049     27.08686921
     -1.67253047     22.03744411
     -1.65251045     17.48115997
     -1.63249043     13.50610823
     -1.61247041     10.15389346
     -1.59245039      7.42177707
     -1.57243037      5.27009974
     -1.55241035      3.63290936
     -1.53239033      2.42955212
     -1.51237031      1.57530069
     -1.49235029      0.98971913
     -1.47233027      0.60218736
     -1.45231025      0.35464632
     -1.43229023      0.20206387
     -1.41227021      0.11132899
     -1.39225019      0.05928744
     -1.37223017      0.03050504
     -1.35221015      0.01515882
     -1.33219013      0.00727253
     -1.31217011      0.00336731
     -1.29215009      0.00150425
     -1.27213007      0.00064814
     -1.25211005      0.00026928
     -1.23209003      0.00010785
     -1.21207001      0.00004163
     -1.19204999      0.00001548
     -1.17202997      0.00000555
     -1.15200995      0.00000191
     -1.13198993      0.00000064
     -1.11196991      0.00000020
     -1.09194989      0.00000006
     -1.07192987      0.00000002
     -1.05190985      0.00000001
     -1.03188983      0.00000000
     -1.01186981      0.00000000
     -0.99184979      0.00000000
     -0.97182977      0.00000000
     -0.95180975      0.00000000
     -0.93178973      0.00000000
     -0.91176971      0.00000000
     -0.89174969      0.00000000
     -0.87172967      0.00000000
     -0.85170965      0.00000000
     -0.83168963      0.00000000
     -0.81166961      0.00000000
     -0.79164959      0.00000000
     -0.77162957      0.00000000
     -0.75160955      0.00000000
     -0.73158953      0.00000000
     -0.71156951      0.00000000
     -0.69154949      0.00000000
     -0.67152947      0.00000000
     -0.65150945      0.00000000
     -0.63148943      0.00000000
     -0.61146941      0.00000000
     -0.59144939      0.00000000
     -0.57142937      0.00000000
     -0.55140935      0.00000001
     -0.53138933      0.00000004
     -0.51136931      0.00000013
     -0.49134929      0.00000042
     -0.47132927      0.00000126
     -0.45130925      0.00000364
     -0.43128923      0.00001014
     -0.41126921      0.00002717
     -0.39124919      0.00007012
     -0.37122917      0.00017431
     -0.35120915      0.00041748
     -0.33118913      0.00096354
     -0.31116911      0.00214346
     -0.29114909      0.00459716
     -0.27112907      0.00950861
     -0.25110905      0.01897319
     -0.23108903      0.03653616
     -0.21106901      0.06792872
     -0.19104899      0.12199809
     -0.17102897      0.21177852
     -0.15100895      0.35558911
     -0.13098893      0.57798734
     -0.11096891      0.91038365
     -0.09094889      1.39115726
     -0.07092887      2.06522190
     -0.05090885      2.98315327
     -0.03088883      4.20015204
     -0.01086881      5.77518997
      0.00915121      7.77059417
      0.02917123     10.25203785
      0.04919125     13.28849802
      0.06921127     16.95137945
      0.08923129     21.31190670
      0.10925131     26.43621335
      0.12927133     32.37831107
      0.14929135     39.17209012
      0.16931137     46.82431154
      0.18933139     55.31080250
      0.20935141     64.57752305
      0.22937143     74.54689003
      0.24939145     85.12808216
      0.26941147     96.22854853
      0.28943149    107.76312094
      0.30945151    119.65729828
      0.32947153    131.84244018
      0.34949155    144.24250872
      0.36951157    156.75420391
      0.38953159    169.22438893
      0.40955161    181.43019780
      0.42957163    193.06786458
      0.44959165    203.75590221
      0.46961167    213.05666840
      0.48963169    220.51757047
      0.50965171    225.72935786
      0.52967173    228.39460408
      0.54969175    228.39542216
      0.56971177    225.84681854
      0.58973179    221.12203144
      0.60975181    214.83949327
      0.62977183    207.80763922
      0.64979185    200.93250276
      0.66981187    195.10178826
      0.68983189    191.06541290
      0.70985191    189.33435441
      0.72987193    190.11626526
      0.74989195    193.29855798
      0.76991197    198.47971321
      0.78993199    205.04016058
      0.80995201    212.23757561
      0.82997203    219.30901947
      0.84999205    225.56384178
      0.87001207    230.45544407
      0.89003209    233.62524444
      0.91005211    234.91714533
      0.93007213    234.36477000
      0.95009215    232.15660227
      0.97011217    228.58616098
      0.99013219    223.99564701
      1.01015221    218.72204055
      1.03017223    213.05408956
      1.05019225    207.20669429
      1.07021227    201.31582343
      1.09023229    195.45275218
      1.11025231    189.65204358
      1.13027233    183.94450211
      1.15029235    178.38534192
      1.17031237    173.06946354
      1.19033239    168.12961736
      1.21035241    163.71819081
      1.23037243    159.97788264
      1.25039245    157.00931272
      1.27041247    154.84400853
      1.29043249    153.42936937
      1.31045251    152.62893379
      1.33047253    152.23761603
      1.35049255    152.00846035
      1.37051257    151.68546695
      1.39053259    151.03637802
      1.41055261    149.87989710
      1.43057263    148.10338172
      1.45059265    145.66919885
      1.47061267    142.61018254
      1.49063269    139.01649066
      1.51065271    135.01725561
      1.53067273    130.76062694
      1.55069275    126.39525621
      1.57071277    122.05530628
      1.59073279    117.85004034
      1.61075281    113.85820176
      1.63077283    110.12680449
      1.65079285    106.67356591
      1.67081287    103.49196354
      1.69083289    100.55776867
      1.71085291     97.83593999
      1.73087293     95.28697596
      1.75089295     92.87219137
      1.77091297     90.55779348
      1.79093299     88.31795295
      1.81095301     86.13719272
      1.83097303     84.01233070
      1.85099305     81.95396160
      1.87101307     79.98715318
      1.89103309     78.15078001
      1.91105311     76.49483243
      1.93107313     75.07519751
      1.95109315     73.94584601
      1.97111317     73.14903369
      1.99113319     72.70490840
      2.01115321     72.60258344
      2.03117323     72.79502602
      2.05119325     73.19978379
      2.07121327     73.70655391
      2.09123329     74.19104481
      2.11125331     74.53290273
      2.13127333     74.63423202
      2.15129335     74.43493020
      2.17131337     73.92189482
      2.19133339     73.13091340
      2.21135341     72.14210010
      2.23137343     71.07131449
      2.25139345     70.06048743
      2.27141347     69.26903733
      2.29143349     68.86696129
      2.31145351     69.02845811
      2.33147353     69.92384070
      2.35149355     71.70749240
      2.37151357     74.50074595
      2.39153359     78.37044689
      2.41155361     83.30603328
      2.43157363     89.19963657
      2.45159365     95.83451941
      2.47161367    102.88680673
      2.49163369    109.94380389
      2.51165371    116.53933156
      2.53167373    122.20285436
      2.55169375    126.51550937
      2.57171377    129.16346450
      2.59173379    129.97833691
      2.61175381    128.95624061
      2.63177383    126.25124706
      2.65179385    122.14465511
      2.67181387    116.99692898
      2.69183389    111.19285389
      2.71185391    105.09126268
      2.73187393     98.98842418
      2.75189395     93.09969268
      2.77191397     87.55885056
      2.79193399     82.43041174
      2.81195401     77.72817039
      2.83197403     73.43374837
      2.85199405     69.51115899
      2.87201407     65.91625009
      2.89203409     62.60210482
      2.91205411     59.52236413
      2.93207413     56.63401125
      2.95209415     53.90002838
      2.97211417     51.29129687
      2.99213419     48.78674531
      3.01215421     46.37117944
      3.03217423     44.03114868
      3.05219425     41.75010775
      3.07221427     39.50458280
      3.09223429     37.26286994
      3.11225431     34.98708086
      3.13227433     32.63838041
      3.15229435     30.18434472
      3.17231437     27.60674704
      3.19233439     24.90788228
      3.21235441     22.11379858
      3.23237443     19.27345219
      3.25239445     16.45369968
      3.27241447     13.73098146
      3.29243449     11.18129843
      3.31245451      8.87043937
      3.33247453      6.84628699
      3.35249455      5.13446332
      3.37251457      3.73775139
      3.39253459      2.63889503
      3.41255461      1.80575816
      3.43257463      1.19755136
      3.45259465      0.77091637
      3.47261467      0.48500274
      3.49263469      0.30512343
      3.51265471      0.20498716
      3.53267473      0.16776755
      3.55269475      0.18633883
      3.57271477      0.26290101
      3.59273479      0.40800197
      3.61275481      0.63873769
      3.63277483      0.97578993
      3.65279485      1.43904294
      3.67281487      2.04185946
      3.69283489      2.78465172
      3.71285491      3.64900469
      3.73287493      4.59404719
      3.75289495      5.55675737
      3.77291497      6.45726368
      3.79293499      7.20900831
      3.81295501      7.73218228
      3.83297503      7.96761016
      3.85299505      7.88775601
      3.87301507      7.50202047
      3.89303509      6.85492014
      3.91305511      6.01763620
      3.93307513      5.07514938
      3.95309515      4.11217036
      3.97311517      3.20105204
      3.99313519      2.39394264
      4.01315521      1.72002256
      4.03317523      1.18728251
      4.05319525      0.78736137
      4.07321527      0.50164547
      4.09323529      0.30706783
      4.11325531      0.18060926
      4.13327533      0.10213066
      4.15329535      0.05566412
      4.17331537      0.02957175
      4.19333539      0.01605754
      4.21335541      0.01045699
      4.23337543      0.01060853
      4.25339545      0.01648947
      4.27341547      0.03020467
      4.29343549      0.05634861
      4.31345551      0.10270630
      4.33347553      0.18119462
      4.35349555      0.30886312
      4.37351557      0.50867390
      4.39353559      0.80968825
      4.41355561      1.24624384
      4.43357563      1.85575980
      4.45359565      2.67499635
      4.47361567      3.73492853
      4.49363569      5.05482460
      4.51365571      6.63654918
      4.53367573      8.46039735
      4.55369575     10.48376737
      4.57371577     12.64360577
      4.59373579     14.86282207
      4.61375581     17.05991034
      4.63377583     19.16007778
      4.65379585     21.10556037
      4.67381587     22.86274182
      4.69383589     24.42428401
      4.71385591     25.80562706
      4.73387593     27.03664198
      4.75389595     28.15052898
      4.77391597     29.17287009
      4.79393599     30.11380875
      4.81395601     30.96558458
      4.83397603     31.70625735
      4.85399605     32.30874964
      4.87401607     32.75276389
      4.89403609     33.03613024
      4.91405611     33.18204717
      4.93407613     33.23960204
      4.95409615     33.27673193
      4.97411617     33.36695387
      4.99413619     33.57313043
      5.01415621     33.93261948
      5.03417623     34.44799027
      5.05419625     35.08605757
      5.07421627     35.78569711
      5.09423629     36.47246124
      5.11425631     37.07617620
      5.13427633     37.54702819
      5.15429635     37.86628893
      5.17431637     38.04950749
      5.19433639     38.14210139
      5.21435641     38.20913336
      5.23437643     38.32215120
      5.25439645     38.54611706
      5.27441647     38.92882571
      5.29443649     39.49419491
      5.31445651     40.23981750
      5.33447653     41.13846303
      5.35449655     42.14285531
      5.37451657     43.19290217
      5.39453659     44.22442611
      5.41455661     45.17822896
      5.43457663     46.00806261
      5.45459665     46.68595704
      5.47461667     47.20359862
      5.49463669     47.56917600
      5.51465671     47.80023224
      5.53467673     47.91427162
      5.55469675     47.91974150
      5.57471677     47.81016738
      5.59473679     47.56350857
      5.61475681     47.14737653
      5.63477683     46.52903685
      5.65479685     45.68763830
      5.67481687     44.62534055
      5.69483689     43.37417784
      5.71485691     41.99653636
      5.73487693     40.57872733
      5.75489695     39.21886153
      5.77491697     38.01163392
      5.79493699     37.03337934
      5.81495701     36.33070441
      5.83497703     35.91516777
      5.85499705     35.76507798
      5.87501707     35.83384861
      5.89503709     36.06290401
      5.91505711     36.39624291
      5.93507713     36.79366409
      5.95509715     37.24032459
      5.97511717     37.75146578
      5.99513719     38.37237192
      6.01515721     39.17448817
      6.03517723     40.24887880
      6.05519725     41.69790553
      6.07521727     43.62547457
      6.09523729     46.12586519
      6.11525731     49.27131269
      6.13527733     53.09917405
      6.15529735     57.60033575
      6.17531737     62.71105373
      6.19533739     68.31027692
      6.21535741     74.22365436
      6.23537743     80.23418865
      6.25539745     86.09839301
      6.27541747     91.56625140
      6.29543749     96.40333304
      6.31545751    100.41375097
      6.33547753    103.46277110
      6.35549755    105.49741656
      6.37551757    106.56243624
      6.39553759    106.80802624
      6.41555761    106.48544093
