#  aims_uuid : E4FDCE63-F4B0-4388-A6F9-5C6054C546B5                                
# Angular momentum resolved density for species Moas calculated by FHI-aims
# The energy reference for this output is the chemical potential, mu =       -4.423566 eV
#      Energy (eV)         total dos     l= 0              l= 1              l= 2              l= 3              l= 4
       -5.57643438       33.57571791        3.23176869        5.62923497       24.24262350        0.40949333        0.06259742
       -5.55641436       34.26960587        3.58285479        5.84883052       24.33681187        0.43649456        0.06461413
       -5.53639434       34.56206144        3.87461968        5.96356352       24.19847196        0.45967893        0.06572735
       -5.51637432       34.42121982        4.08873672        5.96337406       23.82549405        0.47774699        0.06586800
       -5.49635430       33.84480019        4.21270208        5.84741293       23.22978491        0.48986908        0.06503119
       -5.47633428       32.86288297        4.24134269        5.62402276       22.43848739        0.49574807        0.06328205
       -5.45631426       31.53534052        4.17728829        5.30941538       21.49229939        0.49558591        0.06075155
       -5.43629424       29.94457562        4.03034896        4.92539507       20.44123699        0.48997152        0.05762307
       -5.41627422       28.18518004        3.81595181        4.49661740       19.33877510        0.47972335        0.05411239
       -5.39625420       26.35258627        3.55295288        4.04787962       18.23558306        0.46572640        0.05044431
       -5.37623418       24.53274363        3.26122155        3.60183863       17.17405382        0.44879998        0.04682967
       -5.35621416       22.79443616        2.95938715        3.17739693       16.18458451        0.42962168        0.04344590
       -5.33619414       21.18523909        2.66306032        2.78883721       15.28420000        0.40871784        0.04042372
       -5.31617412       19.73142726        2.38372227        2.44565653       14.47769267        0.38651416        0.03784163
       -5.29615410       18.44149208        2.12834549        2.15296521       13.76102618        0.36342628        0.03572891
       -5.27613408       17.31235830        1.89969132        1.91227213       13.12635770        0.33996051        0.03407664
       -5.25611406       16.33697861        1.69713764        1.72246832       12.56772558        0.31679195        0.03285511
       -5.23609404       15.51179157        1.51783124        1.58083635       12.08629592        0.29479308        0.03203498
       -5.21607402       14.84260888        1.35793551        1.48394776       11.69411913        0.27499804        0.03160844
       -5.19605400       14.34785721        1.21375689        1.42835787       11.41563087        0.25850471        0.03160687
       -5.17603398       14.05867219        1.08257818        1.41105719       11.28659100        0.24633431        0.03211151
       -5.15601396       14.01599692        0.96309609        1.42968280       11.35068224        0.23928056        0.03325523
       -5.13599394       14.26541093        0.85544231        1.48252065       11.65444843        0.23778508        0.03521446
       -5.11597392       14.85076018        0.76084532        1.56833972       12.24151241        0.24187031        0.03819242
       -5.09595390       15.80769015        0.68105115        1.68609432       13.14700229        0.25114706        0.04239534
       -5.07593388       17.15791672        0.61765310        1.83452366       14.39284172        0.26489388        0.04800435
       -5.05591386       18.90462017        0.57148032        2.01167901       15.98412907        0.28218626        0.05514551
       -5.03589384       21.02891226        0.54216601        2.21442524       17.90642181        0.30203887        0.06386032
       -5.01587382       23.48710911        0.52796772        2.43799350       20.12354769        0.32352136        0.07407884
       -4.99585380       26.20867413        0.52585628        2.67568986       22.57571363        0.34581615        0.08559820
       -4.97583378       29.09515205        0.53183935        2.91887483       25.17816155        0.36820659        0.09806973
       -4.95581376       32.02099816        0.54144734        3.15730217       27.82124147        0.39000784        0.11099935
       -4.93579374       34.83759394        0.55028960        3.37983909       30.37322586        0.41047374        0.12376565
       -4.91577372       37.38162255        0.55458509        3.57549576       32.68715884        0.42872387        0.13565899
       -4.89575370       39.48820912        0.55158371        3.73459674       34.61235687        0.44373027        0.14594153
       -4.87573368       41.00793975        0.53981740        3.84986543       36.00994802        0.45438566        0.15392324
       -4.85571366       41.82545180        0.51915199        3.91719065       36.77041689        0.45964832        0.15904394
       -4.83569364       41.87625510        0.49064576        3.93591033       36.83001803        0.45873335        0.16094762
       -4.81567362       41.15823892        0.45625507        3.90856297       36.18258319        0.45130282        0.15953488
       -4.79565360       39.73510331        0.41845235        3.84018654       34.88387769        0.43760433        0.15498241
       -4.77563358       37.73053854        0.37983148        3.73734550       33.04711793        0.41851909        0.14772454
       -4.75561356       35.31389254        0.34276737        3.60710836       30.83011529        0.39550187        0.13839966
       -4.73559354       32.67975610        0.30917306        3.45617515       28.41621672        0.37042057        0.12777061
       -4.71557352       30.02492329        0.28036721        3.29028339       25.99231499        0.34532465        0.11663305
       -4.69555350       27.52637647        0.25703923        3.11393379       23.72749279        0.32218445        0.10572621
       -4.67553348       25.32339752        0.23928506        2.93040314       21.75540396        0.30264654        0.09565882
       -4.65551346       23.50589338        0.22668669        2.74196837       20.16253604        0.28784327        0.08685900
       -4.63549344       22.10985311        0.21841793        2.55025204       18.98334862        0.27828221        0.07955231
       -4.61547342       21.11976678        0.21336869        2.35660641       18.20219853        0.27382564        0.07376751
       -4.59545340       20.47696795        0.21028500        2.16246826       17.76109302        0.27375574        0.06936593
       -4.57543338       20.09226291        0.20791808        1.96963376       17.57171417        0.27690915        0.06608775
       -4.55541336       19.86088678        0.20516851        1.78042012       17.52983422        0.28185708        0.06360685
       -4.53539334       19.67776968        0.20120511        1.59769972       17.53017493        0.28710390        0.06158602
       -4.51537332       19.45127559        0.19553896        1.42481032       17.47992338        0.29127782        0.05972512
       -4.49535330       19.11394291        0.18804089        1.26535975       17.30945384        0.29329117        0.05779727
       -4.47533328       18.62923891        0.17890393        1.12295187       16.97925935        0.29245365        0.05567011
       -4.45531326       17.99386945        0.16856379        1.00086502       16.48260014        0.28852865        0.05331186
       -4.43529324       17.23570605        0.15759820        0.90171702       15.84387727        0.28172992        0.05078364
       -4.41527322       16.40787176        0.14662569        0.82715839       15.11320385        0.27266337        0.04822045
       -4.39525320       15.57994045        0.13622026        0.77764423       14.35804643        0.26222511        0.04580442
       -4.37523318       14.82751377        0.12685132        0.75234178       13.65311444        0.25147253        0.04373370
       -4.35521316       14.22159876        0.11885255        0.74922378       13.06984295        0.24148839        0.04219110
       -4.33519314       13.81917177        0.11241912        0.76537161       12.66680756        0.23325737        0.04131611
       -4.31517312       13.65607332        0.10762989        0.79746680       12.48222216        0.22757066        0.04118381
       -4.29515310       13.74297947        0.10448829        0.84239318       12.52933762        0.22496737        0.04179302
       -4.27513308       14.06472869        0.10297224        0.89782145       12.79515686        0.22571301        0.04306514
       -4.25511306       14.58284755        0.10307983        0.96262060       13.24248509        0.22980859        0.04485344
       -4.23509304       15.24077923        0.10485590        1.03695314       13.81498903        0.23701945        0.04696171
       -4.21507302       15.97108474        0.10838703        1.12196815       14.44464689        0.24691318        0.04916950
       -4.19505300       16.70372815        0.11375973        1.21910249       15.06070585        0.25889914        0.05126094
       -4.17503298       17.37444217        0.12098775        1.32911602       15.59901786        0.27226756        0.05305297
       -4.15501296       17.93210768        0.12992636        1.45108966       16.01044177        0.28623103        0.05441887
       -4.13499294       18.34412550        0.14020062        1.58167288       16.26697510        0.29997375        0.05530315
       -4.11497292       18.59898044        0.15117619        1.71485051       16.36451573        0.31271305        0.05572496
       -4.09495290       18.70562845        0.16199351        1.84239860       16.32169426        0.32377281        0.05576927
       -4.07493288       18.68992062        0.17167054        1.95502915       16.17499184        0.33266172        0.05556738
       -4.05491286       18.58887498        0.17925815        2.04402511       15.97117792        0.33914291        0.05527089
       -4.03489284       18.44403820        0.18401386        2.10299806       15.75872363        0.34327756        0.05502509
       -4.01487282       18.29530499        0.18554885        2.12932029       15.58006133        0.34542694        0.05494759
       -3.99485280       18.17634122        0.18390594        2.12483007       15.46628320        0.34620505        0.05511695
       -3.97483278       18.11226318        0.17954299        2.09558460       15.43517635        0.34638598        0.05557326
       -3.95481276       18.11961574        0.17322169        2.05069490       15.49258612        0.34678363        0.05632941
       -3.93479274       18.20814074        0.16583016        2.00054381       15.63624644        0.34813118        0.05738914
       -3.91477272       18.38346435        0.15818750        1.95487181       15.86064899        0.35098969        0.05876636
       -3.89475270       18.64971792        0.15088409        1.92125081       16.16137486        0.35570806        0.06050010
       -3.87473268       19.01123363        0.14420020        1.90433511       16.53759594        0.36244129        0.06266109
       -3.85471266       19.47277117        0.13812017        1.90602185       16.99206538        0.37121552        0.06534825
       -3.83469264       20.03815900        0.13242999        1.92635601       17.52868361        0.38201334        0.06867604
       -3.81467262       20.70768061        0.12686074        1.96477900       18.14843920        0.39484621        0.07275546
       -3.79465260       21.47490593        0.12122869        2.02122265       18.84499659        0.40978523        0.07767277
       -3.77463258       22.32386690        0.11552736        2.09662508       19.60130899        0.42693604        0.08346943
       -3.75461256       23.22744997        0.10994553        2.19266153       20.38835478        0.44636228        0.09012586
       -3.73459254       24.14763047        0.10481133        2.31076906       21.16651967        0.46798014        0.09755028
       -3.71457252       25.03777871        0.10048651        2.45080399       21.88945773        0.49145724        0.10557323
       -3.69455250       25.84683908        0.09724990        2.60981975       22.50966990        0.51615097        0.11394856
       -3.67453248       26.52482982        0.09521021        2.78144556       22.98469888        0.54111298        0.12236218
       -3.65451246       27.02889041        0.09427659        2.95618280       23.28280865        0.56517157        0.13045081
       -3.63449244       27.32901452        0.09419550        3.12266778       23.38723517        0.58708418        0.13783189
       -3.61447242       27.41261106        0.09464130        3.26965681       23.29843471        0.60573426        0.14414398
       -3.59445240       27.28710771        0.09533200        3.38825936       23.03409154        0.62033211        0.14909270
       -3.57443238       26.97995940        0.09613504        3.47384507       22.62691141        0.63057372        0.15249416
       -3.55441236       26.53569031        0.09713244        3.52710864       22.12042896        0.63671539        0.15430488
       -3.53439234       26.01001434        0.09862615        3.55397603       21.56324671        0.63953697        0.15462848
       -3.51437232       25.46162750        0.10108109        3.56432036       21.00234231        0.64018993        0.15369380
       -3.49435230       24.94284842        0.10501816        3.56975170       20.47631837        0.63995404        0.15180614
       -3.47433228       24.49074367        0.11088095        3.58097643       20.00965296        0.63995169        0.14928164
       -3.45431226       24.12053829        0.11890489        3.60533403       19.60903431        0.64088453        0.14638052
       -3.43429224       23.82285574        0.12901700        3.64508558       19.26263914        0.64285713        0.14325690
       -3.41427222       23.56563902        0.14078810        3.69685565       18.94272064        0.64533566        0.13993897
       -3.39425220       23.30059759        0.15345002        3.75235790       18.61118691        0.64725737        0.13634539
       -3.37423218       22.97295021        0.16597749        3.80022858       18.22714272        0.64726829        0.13233313
       -3.35421216       22.53239701        0.17722202        3.82852781       17.75485165        0.64403253        0.12776301
       -3.33419214       21.94292464        0.18607377        3.82731693       17.17043209        0.63653771        0.12256413
       -3.31417212       21.18935139        0.19162085        3.79072184       16.46590585        0.62432346        0.11677939
       -3.29415210       20.27938414        0.19327570        3.71804624       15.64989840        0.60758346        0.11058035
       -3.27413208       19.24112475        0.19084534        3.61375773       14.74514529        0.58712756        0.10424883
       -3.25411206       18.11707354        0.18453586        3.48645426       13.78372466        0.56422712        0.09813164
       -3.23409204       16.95640159        0.17489616        3.34714758       12.80138425        0.54039250        0.09258110
       -3.21407202       15.80741888        0.16271898        3.20731340       11.83235072        0.51714003        0.08789575
       -3.19405200       14.71176907        0.14892363        3.07713969       10.90563544        0.49579646        0.08427384
       -3.17403198       13.70113113        0.13444348        2.96428061       10.04325024        0.47736910        0.08178770
       -3.15401196       12.79639136        0.12013464        2.87324907        9.26013865        0.46248762        0.08038137
       -3.13399194       12.00863636        0.10671263        2.80541642        8.56520998        0.45140793        0.07988939
       -3.11397192       11.34106197        0.09471606        2.75947590        7.96273808        0.44406071        0.08007123
       -3.09395190       10.79100030        0.08449228        2.73218380        7.45354156        0.44012883        0.08065383
       -3.07393188       10.35160842        0.07620014        2.71920703        7.03568470        0.43914165        0.08137490
       -3.05391186       10.01315046        0.06982690        2.71595022        6.70477615        0.44057721        0.08201999
       -3.03389184        9.76407113        0.06521876        2.71828130        6.45416009        0.44396245        0.08244854
       -3.01387182        9.59212031        0.06212434        2.72310242        6.27532972        0.44895787        0.08260595
       -2.99385180        9.48566628        0.06024848        2.72872266        6.15876461        0.45540930        0.08252123
       -2.97383178        9.43512986        0.05931061        2.73499048        6.09518580        0.46335116        0.08229181
       -2.95381176        9.43430544        0.05909990        2.74315556        6.07703846        0.47295291        0.08205860
       -2.93379174        9.48129412        0.05951863        2.75546154        6.09992360        0.48441496        0.08197540
       -2.91377172        9.57886881        0.06060730        2.77452158        6.16372720        0.49783553        0.08217720
       -2.89375170        9.73426313        0.06254812        2.80258353        6.27329740        0.51308239        0.08275169
       -2.87373167        9.95853146        0.06564652        2.84082731        6.43863417        0.52970553        0.08371793
       -2.85371165       10.26569380        0.07029301        2.88883870        6.67462788        0.54691895        0.08501526
       -2.83369163       10.67184215        0.07690887        2.94436636        7.00040132        0.56366147        0.08650412
       -2.81367161       11.19429386        0.08588079        3.00340509        7.43830290        0.57872589        0.08797920
       -2.79365159       11.85080748        0.09749122        3.06058107        8.01261410        0.59092796        0.08919314
       -2.77363157       12.65887877        0.11185446        3.10976515        8.74809195        0.59927923        0.08988797
       -2.75361155       13.63519135        0.12887091        3.14481961        9.66854050        0.60313046        0.08982985
       -2.73359153       14.79532590        0.14821268        3.16038651       10.79561999        0.60226448        0.08884225
       -2.71357151       16.15373690        0.16935027        3.15263728       12.14798548        0.59693115        0.08683271
       -2.69355149       17.72375240        0.19162122        3.11990780       13.74058620        0.58782807        0.08380910
       -2.67353147       19.51702223        0.21432952        3.06313510       15.58364060        0.57603462        0.07988239
       -2.65351145       21.54162447        0.23685275        2.98600230       17.68060882        0.56290564        0.07525496
       -2.63349143       23.79816132        0.25872741        2.89470542       20.02460463        0.54992834        0.07019551
       -2.61347141       26.27375460        0.27968536        2.79729860       22.59321953        0.53854724        0.06500387
       -2.59345139       28.93480869        0.29962740        2.70265545       25.34258523        0.52996959        0.05997101
       -2.57343137       31.72043739        0.31853985        2.61918713       28.20239335        0.52497602        0.05534104
       -2.55341135       34.53910968        0.33638047        2.55354712       31.07412795        0.52377249        0.05128165
       -2.53339133       37.27095930        0.35297369        2.50959244       33.83460105        0.52592357        0.04786854
       -2.51337131       39.77716037        0.36795548        2.48783732       36.34588348        0.53039772        0.04508637
