#  aims_uuid : E4FDCE63-F4B0-4388-A6F9-5C6054C546B5                                
# Angular momentum resolved density for species Oas calculated by FHI-aims
# The energy reference for this output is the chemical potential, mu =       -4.423566 eV
#      Energy (eV)         total dos     l= 0              l= 1              l= 2              l= 3              l= 4
       -5.57643438        0.15389305        0.00256666        0.14855913        0.00230936        0.00039318        0.00006473
       -5.55641436        0.14617312        0.00256057        0.14104172        0.00214555        0.00036500        0.00006028
       -5.53639434        0.13956447        0.00253634        0.13464083        0.00199287        0.00033833        0.00005610
       -5.51637432        0.13449675        0.00250007        0.12977102        0.00185868        0.00031457        0.00005242
       -5.49635430        0.13126838        0.00245807        0.12671785        0.00174824        0.00029481        0.00004942
       -5.47633428        0.13005533        0.00241648        0.12564719        0.00166472        0.00027973        0.00004721
       -5.45631426        0.13095166        0.00238099        0.12664550        0.00160957        0.00026972        0.00004588
       -5.43629424        0.13402548        0.00235666        0.12977513        0.00158330        0.00026494        0.00004545
       -5.41627422        0.13936909        0.00234796        0.13512356        0.00158617        0.00026548        0.00004593
       -5.39625420        0.14712247        0.00235911        0.14282605        0.00161856        0.00027140        0.00004735
       -5.37623418        0.15745583        0.00239458        0.15304783        0.00168096        0.00028275        0.00004971
       -5.35621416        0.17050879        0.00245969        0.16592329        0.00177337        0.00029945        0.00005299
       -5.33619414        0.18629664        0.00256104        0.18146297        0.00189433        0.00032115        0.00005715
       -5.31617412        0.20460629        0.00270659        0.19945061        0.00203998        0.00034708        0.00006203
       -5.29615410        0.22491071        0.00290518        0.21935893        0.00220324        0.00037594        0.00006742
       -5.27613408        0.24632994        0.00316552        0.24031195        0.00237365        0.00040585        0.00007297
       -5.25611406        0.26765818        0.00349466        0.26111289        0.00253787        0.00043448        0.00007829
       -5.23609404        0.28746178        0.00389624        0.28034244        0.00268091        0.00045929        0.00008290
       -5.21607402        0.30423677        0.00436879        0.29651588        0.00278795        0.00047776        0.00008638
       -5.19605400        0.31659964        0.00490435        0.30827279        0.00284632        0.00048781        0.00008836
       -5.17603398        0.32347615        0.00548770        0.31456447        0.00284734        0.00048806        0.00008857
       -5.15601396        0.32425197        0.00609639        0.31480297        0.00278765        0.00047802        0.00008694
       -5.13599394        0.31885599        0.00670167        0.30894286        0.00266974        0.00045818        0.00008354
       -5.11597392        0.30776066        0.00727042        0.29748007        0.00250159        0.00042995        0.00007863
       -5.09595390        0.29190109        0.00776802        0.28136961        0.00229551        0.00039540        0.00007255
       -5.07593388        0.27253091        0.00816179        0.26188004        0.00206633        0.00035701        0.00006574
       -5.05591386        0.25104515        0.00842477        0.24041501        0.00182943        0.00031730        0.00005864
       -5.03589384        0.22880474        0.00853911        0.21833667        0.00159875        0.00027855        0.00005166
       -5.01587382        0.20699369        0.00849856        0.19682203        0.00138545        0.00024253        0.00004511
       -4.99585380        0.18652892        0.00830937        0.17677288        0.00119702        0.00021044        0.00003921
       -4.97583378        0.16802850        0.00798949        0.15878483        0.00103724        0.00018286        0.00003409
       -4.95581376        0.15183014        0.00756603        0.14316783        0.00090666        0.00015987        0.00002975
       -4.93579374        0.13804292        0.00707147        0.13000058        0.00080349        0.00014120        0.00002618
       -4.91577372        0.12661245        0.00653938        0.11919879        0.00072460        0.00012639        0.00002330
       -4.89575370        0.11738293        0.00600066        0.11057998        0.00066632        0.00011493        0.00002103
       -4.87573368        0.11014650        0.00548079        0.10391487        0.00062517        0.00010637        0.00001930
       -4.85571366        0.10467769        0.00499881        0.09896249        0.00059804        0.00010031        0.00001804
       -4.83569364        0.10075576        0.00456786        0.09549188        0.00058235        0.00009646        0.00001720
       -4.81567362        0.09817934        0.00419707        0.09329503        0.00057593        0.00009458        0.00001673
       -4.79565360        0.09677679        0.00389384        0.09219505        0.00057686        0.00009444        0.00001660
       -4.77563358        0.09641266        0.00366590        0.09205078        0.00058338        0.00009582        0.00001679
       -4.75561356        0.09698869        0.00352222        0.09275691        0.00059381        0.00009850        0.00001726
       -4.73559354        0.09843705        0.00347250        0.09423777        0.00060659        0.00010222        0.00001797
       -4.71557352        0.10070516        0.00352508        0.09643409        0.00062034        0.00010675        0.00001890
       -4.69555350        0.10373429        0.00368398        0.09928460        0.00063388        0.00011183        0.00002000
       -4.67553348        0.10743767        0.00394584        0.10270707        0.00064629        0.00011722        0.00002124
       -4.65551346        0.11168556        0.00429786        0.10658549        0.00065696        0.00012270        0.00002256
       -4.63549344        0.11630498        0.00471776        0.11076973        0.00066552        0.00012805        0.00002390
       -4.61547342        0.12109875        0.00517614        0.11509239        0.00067190        0.00013309        0.00002523
       -4.59545340        0.12588414        0.00564101        0.11940267        0.00067631        0.00013768        0.00002648
       -4.57543338        0.13054503        0.00608366        0.12361271        0.00067928        0.00014175        0.00002762
       -4.55541336        0.13508678        0.00648422        0.12774672        0.00068180        0.00014538        0.00002865
       -4.53539334        0.13967949        0.00683537        0.13198033        0.00068540        0.00014878        0.00002961
       -4.51537332        0.14467526        0.00714292        0.13665718        0.00069228        0.00015234        0.00003054
       -4.49535330        0.15058865        0.00742283        0.14227235        0.00070528        0.00015662        0.00003156
       -4.47533328        0.15803592        0.00769525        0.14941772        0.00072779        0.00016236        0.00003280
       -4.45531326        0.16763750        0.00797721        0.15869218        0.00076338        0.00017031        0.00003441
       -4.43529324        0.17989679        0.00827602        0.17058781        0.00081530        0.00018116        0.00003651
       -4.41527322        0.19507669        0.00858511        0.18537129        0.00088573        0.00019539        0.00003918
       -4.39525320        0.21309896        0.00888358        0.20298473        0.00097513        0.00021307        0.00004244
       -4.37523318        0.23349191        0.00913955        0.22299064        0.00108168        0.00023383        0.00004622
       -4.35521316        0.25540459        0.00931604        0.24458047        0.00120100        0.00025674        0.00005033
       -4.33519314        0.27769406        0.00937806        0.26665453        0.00132650        0.00028043        0.00005454
       -4.31517312        0.29907609        0.00929891        0.28796535        0.00145007        0.00030322        0.00005854
       -4.29515310        0.31831287        0.00906448        0.30729976        0.00156322        0.00032340        0.00006201
       -4.27513308        0.33440014        0.00867511        0.32366247        0.00165839        0.00033947        0.00006470
       -4.25511306        0.34671265        0.00814501        0.33642073        0.00173013        0.00035036        0.00006643
       -4.23509304        0.35507572        0.00750003        0.34537712        0.00177579        0.00035565        0.00006714
       -4.21507302        0.35974897        0.00677435        0.35075643        0.00179576        0.00035556        0.00006688
       -4.19505300        0.36133191        0.00600673        0.35311548        0.00179303        0.00035086        0.00006581
       -4.17503298        0.36062204        0.00523669        0.35320612        0.00177236        0.00034271        0.00006416
       -4.15501296        0.35846714        0.00450070        0.35183266        0.00173922        0.00033239        0.00006216
       -4.13499294        0.35565107        0.00382881        0.34974220        0.00169890        0.00032112        0.00006004
       -4.11497292        0.35283634        0.00324192        0.34757071        0.00165587        0.00030986        0.00005798
       -4.09495290        0.35056438        0.00275030        0.34584520        0.00161353        0.00029928        0.00005608
       -4.07493288        0.34929273        0.00235344        0.34502082        0.00157434        0.00028975        0.00005439
       -4.05491286        0.34943607        0.00204170        0.34552001        0.00154002        0.00028142        0.00005292
       -4.03489284        0.35137882        0.00179910        0.34774189        0.00151188        0.00027430        0.00005166
       -4.01487282        0.35544019        0.00160697        0.35202345        0.00149088        0.00026832        0.00005057
       -3.99485280        0.36179312        0.00144750        0.35855511        0.00147751        0.00026338        0.00004963
       -3.97483278        0.37035976        0.00130648        0.36727357        0.00147158        0.00025933        0.00004880
       -3.95481276        0.38071996        0.00117487        0.37776930        0.00147184        0.00025591        0.00004804
       -3.93479274        0.39207235        0.00104884        0.38924757        0.00147588        0.00025277        0.00004729
       -3.91477272        0.40327668        0.00092879        0.40057190        0.00148013        0.00024938        0.00004647
       -3.89475270        0.41298540        0.00081763        0.41039687        0.00148029        0.00024514        0.00004547
       -3.87473268        0.41984572        0.00071900        0.41737122        0.00147194        0.00023938        0.00004418
       -3.85471266        0.42272960        0.00063577        0.42036839        0.00145139        0.00023155        0.00004250
       -3.83469264        0.42093638        0.00056928        0.41868908        0.00141641        0.00022126        0.00004035
       -3.81467262        0.41431619        0.00051906        0.41218425        0.00136669        0.00020845        0.00003773
       -3.79465260        0.40328225        0.00048318        0.40126703        0.00130398        0.00019338        0.00003468
       -3.77463258        0.38871185        0.00045877        0.38681343        0.00123176        0.00017660        0.00003130
       -3.75461256        0.37176672        0.00044265        0.36998283        0.00115457        0.00015894        0.00002774
       -3.73459254        0.35368478        0.00043188        0.35201018        0.00107723        0.00014129        0.00002419
       -3.71457252        0.33559764        0.00042410        0.33402408        0.00100406        0.00012457        0.00002082
       -3.69455250        0.31841320        0.00041776        0.31692978        0.00093830        0.00010957        0.00001780
       -3.67453248        0.30277562        0.00041213        0.30136955        0.00088184        0.00009686        0.00001524
       -3.65451246        0.28908878        0.00040726        0.28774619        0.00083528        0.00008682        0.00001323
       -3.63449244        0.27757167        0.00040374        0.27627840        0.00079816        0.00007955        0.00001181
       -3.61447242        0.26831233        0.00040246        0.26705464        0.00076929        0.00007498        0.00001096
       -3.59445240        0.26129789        0.00040429        0.26006303        0.00074712        0.00007281        0.00001063
       -3.57443238        0.25641634        0.00040983        0.25519315        0.00072999        0.00007263        0.00001073
       -3.55441236        0.25344268        0.00041918        0.25222213        0.00071632        0.00007390        0.00001115
       -3.53439234        0.25203127        0.00043191        0.25080686        0.00070470        0.00007605        0.00001175
       -3.51437232        0.25173488        0.00044715        0.25050291        0.00069389        0.00007852        0.00001241
       -3.49435230        0.25206101        0.00046378        0.25082057        0.00068286        0.00008077        0.00001302
       -3.47433228        0.25256123        0.00048077        0.25131376        0.00067081        0.00008241        0.00001349
       -3.45431226        0.25293521        0.00049738        0.25168376        0.00065717        0.00008315        0.00001376
       -3.43429224        0.25312223        0.00051333        0.25187054        0.00064168        0.00008286        0.00001381
       -3.41427222        0.25335213        0.00052881        0.25210371        0.00062436        0.00008158        0.00001367
       -3.39425220        0.25413497        0.00054432        0.25289229        0.00060555        0.00007945        0.00001337
       -3.37423218        0.25618233        0.00056043        0.25494642        0.00058584        0.00007668        0.00001296
       -3.35421216        0.26027095        0.00057753        0.25904135        0.00056601        0.00007354        0.00001252
       -3.33419214        0.26707554        0.00059568        0.26585062        0.00054688        0.00007027        0.00001209
       -3.31417212        0.27700932        0.00061462        0.27578675        0.00052918        0.00006705        0.00001171
       -3.29415210        0.29011302        0.00063394        0.28889027        0.00051344        0.00006400        0.00001137
       -3.27413208        0.30602508        0.00065328        0.30479973        0.00049988        0.00006112        0.00001108
       -3.25411206        0.32404677        0.00067259        0.32281666        0.00048839        0.00005834        0.00001080
       -3.23409204        0.34329113        0.00069213        0.34205438        0.00047861        0.00005552        0.00001048
       -3.21407202        0.36288000        0.00071234        0.36163505        0.00047001        0.00005250        0.00001009
       -3.19405200        0.38213693        0.00073351        0.38088268        0.00046208        0.00004909        0.00000958
       -3.17403198        0.40072212        0.00075540        0.39945833        0.00045437        0.00004512        0.00000890
       -3.15401196        0.41867041        0.00077707        0.41739822        0.00044663        0.00004043        0.00000805
       -3.13399194        0.43632139        0.00079683        0.43504386        0.00043876        0.00003495        0.00000699
       -3.11397192        0.45416264        0.00081265        0.45288494        0.00043071        0.00002861        0.00000574
       -3.09395190        0.47263252        0.00082271        0.47136167        0.00042244        0.00002141        0.00000430
       -3.07393188        0.49193999        0.00082608        0.49068404        0.00041379        0.00001339        0.00000269
       -3.05391186        0.51195230        0.00082319        0.51071911        0.00040445        0.00000461        0.00000095
       -3.03389184        0.53218111        0.00081595        0.53097689        0.00039399       -0.00000481       -0.00000091
       -3.01387182        0.55187041        0.00080733        0.55069875        0.00038195       -0.00001475       -0.00000287
       -2.99385180        0.57016437        0.00080066        0.56902581        0.00036794       -0.00002512       -0.00000491
       -2.97383178        0.58631373        0.00079859        0.58520626        0.00035178       -0.00003586       -0.00000705
       -2.95381176        0.59986984        0.00080226        0.59879030        0.00033357       -0.00004698       -0.00000931
       -2.93379174        0.61081550        0.00081078        0.60976134        0.00031369       -0.00005856       -0.00001175
       -2.91377172        0.61959148        0.00082134        0.61856255        0.00029278       -0.00007076       -0.00001442
       -2.89375170        0.62699907        0.00082976        0.62599886        0.00027163       -0.00008377       -0.00001741
       -2.87373167        0.63398837        0.00083154        0.63302425        0.00025102       -0.00009771       -0.00002073
       -2.85371165        0.64137640        0.00082290        0.64045885        0.00023163       -0.00011258       -0.00002440
       -2.83369163        0.64956704        0.00080162        0.64870809        0.00021389       -0.00012820       -0.00002836
       -2.81367161        0.65835607        0.00076749        0.65756734        0.00019789       -0.00014416       -0.00003249
       -2.79365159        0.66688942        0.00072216        0.66618024        0.00018344       -0.00015980       -0.00003661
       -2.77363157        0.67380252        0.00066863        0.67317869        0.00017008       -0.00017438       -0.00004050
       -2.75361155        0.67751382        0.00061053        0.67697712        0.00015721       -0.00018709       -0.00004395
       -2.73359153        0.67659493        0.00055141        0.67614332        0.00014421       -0.00019725       -0.00004677
       -2.71357151        0.67011353        0.00049423        0.66974191        0.00013060       -0.00020440       -0.00004881
       -2.69355149        0.65785362        0.00044112        0.65755475        0.00011613       -0.00020836       -0.00005002
       -2.67353147        0.64035872        0.00039348        0.64012407        0.00010082       -0.00020925       -0.00005040
       -2.65351145        0.61880071        0.00035213        0.61862111        0.00008498       -0.00020747       -0.00005005
       -2.63349143        0.59472886        0.00031752        0.59459485        0.00006914       -0.00020356       -0.00004909
       -2.61347141        0.56978069        0.00028988        0.56968278        0.00005388       -0.00019818       -0.00004767
       -2.59345139        0.54543280        0.00026923        0.54536172        0.00003977       -0.00019194       -0.00004598
       -2.57343137        0.52284060        0.00025535        0.52278767        0.00002718       -0.00018545       -0.00004414
       -2.55341135        0.50277752        0.00024769        0.50273510        0.00001622       -0.00017918       -0.00004231
       -2.53339133        0.48565202        0.00024537        0.48561402        0.00000671       -0.00017351       -0.00004058
       -2.51337131        0.47156651        0.00024720        0.47152881       -0.00000178       -0.00016869       -0.00003902
