#  aims_uuid : E4FDCE63-F4B0-4388-A6F9-5C6054C546B5                                
# Angular momentum resolved density for species Sas calculated by FHI-aims
# The energy reference for this output is the chemical potential, mu =       -4.423566 eV
#      Energy (eV)         total dos     l= 0              l= 1              l= 2              l= 3              l= 4
       -5.57643438       71.70802478        5.94684109       61.37344115        3.89627001        0.44474499        0.04672753
       -5.55641436       73.94997506        6.13121188       63.33281313        3.97983368        0.45606164        0.05005472
       -5.53639434       75.22246467        6.22539420       64.47555208        4.00636947        0.46218403        0.05296488
       -5.51637432       75.42799597        6.22258469       64.71475126        3.97270938        0.46268109        0.05526955
       -5.49635430       74.54717996        6.12182988       64.03149687        3.87955667        0.45745303        0.05684350
       -5.47633428       72.64252390        5.92848072       62.47793383        3.73168958        0.44678132        0.05763845
       -5.45631426       69.84943017        5.65379405       60.16904253        3.53759009        0.43132098        0.05768252
       -5.43629424       66.35684330        5.31375239       57.26541409        3.30857357        0.41203663        0.05706661
       -5.41627422       62.38189106        4.92731435       53.95097704        3.05758293        0.39009469        0.05592204
       -5.39625420       58.14355617        4.51439363       50.41018450        2.79785167        0.36673115        0.05439521
       -5.37623418       53.83997523        4.09389022       46.80870484        2.54163824        0.34311721        0.05262472
       -5.35621416       49.63272219        3.68206746       43.28048528        2.29920055        0.32024336        0.05072554
       -5.33619414       45.63978705        3.29149240       39.92254373        2.07812945        0.29883930        0.04878217
       -5.31617412       41.93723610        2.93064642       36.79729748        1.88310050        0.27934057        0.04685115
       -5.29615410       38.56798679        2.60418414       33.94088423        1.71604174        0.26190565        0.04497103
       -5.27613408       35.55495312        2.31369715       31.37494578        1.57665469        0.24647852        0.04317697
       -5.25611406       32.91520224        2.05875116       29.11887643        1.46317456        0.23288382        0.04151627
       -5.23609404       30.67183954        1.83793502       27.19968425        1.37322315        0.22093563        0.04006148
       -5.21607402       28.86111815        1.64969510       25.65736480        1.30460150        0.21053887        0.03891788
       -5.19605400       27.53358033        1.49281605       24.54488432        1.25589137        0.20176489        0.03822369
       -5.17603398       26.74955249        1.36652193       23.92321803        1.22678111        0.19488925        0.03814217
       -5.15601396       26.57062999        1.27027252       23.85303280        1.21808916        0.19038872        0.03884679
       -5.13599394       27.04955168        1.20339286       24.38523984        1.23151479        0.18890257        0.04050162
       -5.11597392       28.22089505        1.16468491       25.55261490        1.26918651        0.19116862        0.04324010
       -5.09595390       30.09435726        1.15213668       27.36403141        1.33309829        0.19794518        0.04714569
       -5.07593388       32.65127370        1.16278585       29.80180246        1.42452141        0.20992693        0.05223705
       -5.05591386       35.84385185        1.19273700       32.82153428        1.54346372        0.22765754        0.05845933
       -5.03589384       39.59578192        1.23729365       36.35314095        1.68822818        0.25143767        0.06568148
       -5.01587382       43.80274449        1.29115767       40.30155181        1.85510966        0.28122688        0.07369847
       -4.99585380       48.33196336        1.34866360       44.54625250        2.03826701        0.31654354        0.08223672
       -4.97583378       53.02115017        1.40404020       48.93995823        2.22981294        0.35637707        0.09096174
       -4.95581376       57.67849287        1.45170910       53.30799287        2.42016487        0.39913744        0.09948858
       -4.93579374       62.08616800        1.48662800       57.45078689        2.59868344        0.44267282        0.10739684
       -4.91577372       66.00972720        1.50466373       61.15184670        2.75458189        0.48438218        0.11425271
       -4.89575370       69.21446893        1.50294820       64.19242252        2.87802550        0.52143325        0.11963947
       -4.87573368       71.48784673        1.48014574       66.37216284        2.96127182        0.55107063        0.12319569
       -4.85571366       72.66474745        1.43655968       67.53290299        2.99965751        0.57097059        0.12465668
       -4.83569364       72.65089459        1.37403483       67.58115130        2.99223737        0.57957852        0.12389256
       -4.81567362       71.43930832        1.29566386       66.50441474        2.94193543        0.57635963        0.12093466
       -4.79565360       69.11586785        1.20535920       64.37745493        2.85516339        0.56190688        0.11598345
       -4.77563358       65.85224635        1.10738728       61.35661428        2.74097127        0.53787912        0.10939441
       -4.75561356       61.88713407        1.00596290       57.66286469        2.60988526        0.50677864        0.10164257
       -4.73559354       57.49895458        0.90496832       53.55647088        2.47263428        0.47161013        0.09327098
       -4.71557352       52.97464524        0.80780870       49.30755857        2.33896301        0.43548386        0.08483110
       -4.69555350       48.57932104        0.71736605       45.16721362        2.21668557        0.40123131        0.07682448
       -4.67553348       44.53093998        0.63598707       41.34313649        2.11107076        0.37109178        0.06965388
       -4.65551346       40.98281484        0.56544743       37.98268008        2.02458782        0.34650964        0.06358988
       -4.63549344       38.01536621        0.50686837       35.16468983        1.95699277        0.32805895        0.05875629
       -4.61547342       35.63716464        0.46060571       32.90023045        1.90570345        0.31549066        0.05513437
       -4.59545340       33.79420012        0.42616444       31.14117817        1.86639324        0.30788069        0.05258358
       -4.57543338       32.38548312        0.40220060       29.79483676        1.83372463        0.30384637        0.05087478
       -4.55541336       31.28253225        0.38665241       28.74221421        1.80214132        0.30179403        0.04973029
       -4.53539334       30.35005079        0.37700294       27.85738214        1.76663825        0.30016197        0.04886550
       -4.51537332       29.46515373        0.37063327       27.02543114        1.72343360        0.29762915        0.04802658
       -4.49535330       28.53286657        0.36519389       26.15690954        1.67047428        0.29326874        0.04702013
       -4.47533328       27.49623256        0.35891336       25.19723351        1.60771809        0.28663540        0.04573221
       -4.45531326       26.34015944        0.35077940       24.13030599        1.53715452        0.27778430        0.04413523
       -4.43529324       25.08901649        0.34056170       22.97639076        1.46255443        0.26722641        0.04228320
       -4.41527322       23.79885510        0.32868650       21.78506576        1.38897548        0.25583063        0.04029673
       -4.39525320       22.54585692        0.31600783       20.62472983        1.32209158        0.24468714        0.03834054
       -4.37523318       21.41309372        0.30353993       19.57055857        1.26744838        0.23495019        0.03659665
       -4.35521316       20.47780760        0.29221637       18.69291038        1.22976319        0.22768056        0.03523710
       -4.33519314       19.80114100        0.28272557       18.04792941        1.21237834        0.22370804        0.03439964
       -4.31517312       19.42160484        0.27544623       17.67151590        1.21694195        0.22353135        0.03416940
       -4.29515310       19.35271317        0.27047836       17.57706050        1.24333932        0.22726653        0.03456846
       -4.27513308       19.58434689        0.26774194       17.75655741        1.28984631        0.23464724        0.03555400
       -4.25511306       20.08675338        0.26710218       18.18411611        1.35343781        0.24507238        0.03702490
       -4.23509304       20.81579545        0.26847801       18.82062237        1.43016930        0.25769044        0.03883533
       -4.21507302       21.71817095        0.27189961       19.61839361        1.51555736        0.27150663        0.04081374
       -4.19505300       22.73575390        0.27749815       20.52506223        1.60491064        0.28549806        0.04278481
       -4.17503298       23.80879512        0.28543245       21.48645470        1.69359327        0.29872292        0.04459179
       -4.15501296       24.87827383        0.29577879       22.44873729        1.77723015        0.31041148        0.04611612
       -4.13499294       25.88804158        0.30842455       23.36041644        1.85187985        0.32002906        0.04729168
       -4.11497292       26.78744835        0.32300995       24.17481860        1.91420378        0.32730495        0.04811107
       -4.09495290       27.53486839        0.33895186       24.85341711        1.96165081        0.33222566        0.04862295
       -4.07493288       28.10202960        0.35555997       25.36989491        1.99265683        0.33499708        0.04892081
       -4.05491286       28.47844999        0.37222580       25.71428043        2.00683340        0.33598479        0.04912556
       -4.03489284       28.67481279        0.38863761       25.89606806        2.00509603        0.33564549        0.04936560
       -4.01487282       28.72397854        0.40495970       25.94512758        1.98967077        0.33446212        0.04975837
       -3.99485280       28.67867423        0.42191989       25.90953820        1.96392609        0.33289284        0.05039721
       -3.97483278       28.60569640        0.44077387       25.85022697        1.93201133        0.33133889        0.05134533
       -3.95481276       28.57751086        0.46315315       25.83325226        1.89833646        0.33013165        0.05263735
       -3.93479274       28.66307121        0.49084026       25.92142413        1.86698475        0.32953554        0.05428653
       -3.91477272       28.92012899        0.52553865       26.16734708        1.84118710        0.32976121        0.05629494
       -3.89475270       29.39102137        0.56870472       26.60968731        1.82298341        0.33098286        0.05866306
       -3.87473268       30.10290727        0.62148674       27.27352247        1.81314844        0.33335373        0.06139589
       -3.85471266       31.07197643        0.68477560       28.17430454        1.81137835        0.33701423        0.06450372
       -3.83469264       32.30976826        0.75933036       29.32370187        1.81665030        0.34208863        0.06799709
       -3.81467262       33.82890269        0.84590939       30.73483423        1.82761359        0.34866821        0.07187726
       -3.79465260       35.64555979        0.94532636       32.42445669        1.84287012        0.35678239        0.07612423
       -3.77463258       37.77696854        1.05836307       34.41050049        1.86105670        0.36636289        0.08068539
       -3.75461256       40.23371233        1.18550643       36.70479869        1.88073033        0.37720940        0.08546749
       -3.73459254       43.00838256        1.32652831       39.30240755        1.90014592        0.38896678        0.09033399
       -3.71457252       46.06353521        1.47998436       42.17024944        1.91706896        0.40112342        0.09510903
       -3.69455250       49.32264194        1.64275778       45.23849553        1.92876273        0.41303761        0.09958829
       -3.67453248       52.66755285        1.80980086       48.39796898        1.93223247        0.42399436        0.10355619
       -3.65451246       55.94486740        1.97421707       51.50583665        1.92471649        0.43328919        0.10680801
       -3.63449244       58.98169911        2.12777088       54.40010415        1.90432069        0.44032891        0.10917449
       -3.61447242       61.60897066        2.26181589       56.92124729        1.87062858        0.44473330        0.11054560
       -3.59445240       63.68810634        2.36851315       58.93718108        1.82510593        0.44641702        0.11088916
       -3.57443238       65.13540983        2.44210316       60.36625523        1.77116067        0.44563090        0.11025987
       -3.55441236       65.93808295        2.47993481       61.19260511        1.71380201        0.44294593        0.10879509
       -3.53439234       66.15707966        2.48297143       61.46929690        1.65894153        0.43917364        0.10669616
       -3.51437232       65.91472176        2.45559720       61.30723221        1.61246544        0.43523004        0.10419686
       -3.49435230       65.36869178        2.40471735       60.85122674        1.57925848        0.43196500        0.10152421
       -3.47433228       64.67773097        2.33833671       60.24817806        1.56236699        0.42998988        0.09885933
       -3.45431226       63.96701548        2.26395568       59.61475667        1.56245549        0.42954069        0.09630695
       -3.43429224       63.30183585        2.18718647       59.01270892        1.57765014        0.43040937        0.09388093
       -3.41427222       62.67645261        2.11093926       58.43825127        1.60378953        0.43196282        0.09150974
       -3.39425220       62.02116507        2.03536861       57.82845303        1.63503268        0.43324959        0.08906117
       -3.37423218       61.22575166        1.95855378       57.08292833        1.66471487        0.43317397        0.08638072
       -3.35421216       60.17298778        1.87768086       56.09497004        1.68630229        0.43070014        0.08333445
       -3.33419214       58.77331756        1.79036640       54.78378037        1.69428283        0.42504179        0.07984617
       -3.31417212       56.99176408        1.69574852       53.11945212        1.68484659        0.41579659        0.07592026
       -3.29415210       54.86072251        1.59506775       51.13475339        1.65625585        0.40299988        0.07164564
       -3.27413208       52.47645617        1.49162737       48.92168247        1.60887181        0.38709343        0.06718109
       -3.25411206       49.98149367        1.39019994       46.61486239        1.54487817        0.36882624        0.06272693
       -3.23409204       47.53837515        1.29608104       44.36688452        1.46780024        0.34911886        0.05849049
       -3.21407202       45.30152834        1.21405032       42.32195289        1.38194479        0.32892688        0.05465346
       -3.19405200       43.39342860        1.14748418       40.59359003        1.29187547        0.30913170        0.05134721
       -3.17403198       41.88918611        1.09779342       39.25028255        1.20199770        0.29047293        0.04863951
       -3.15401196       40.81116991        1.06426497       38.31057663        1.11627427        0.27352093        0.04653311
       -3.13399194       40.13300383        1.04429510       37.74700751        1.03805010        0.25867703        0.04497409
       -3.11397192       39.79072174        1.03392989       37.49679349        0.96994580        0.24618562        0.04386693
       -3.09395190       39.69815347        1.02858475       37.47654101        0.91378838        0.23614628        0.04309305
       -3.07393188       39.76357192        1.02379898       37.59814891        0.87057169        0.22852271        0.04252964
       -3.05391186       39.90501053        1.01589235       37.78343487        0.84046366        0.22315283        0.04206682
       -3.03389184       40.06223007        1.00242300       37.97553149        0.82288586        0.21976843        0.04162130
       -3.01387182       40.20394386        0.98239324       38.14569558        0.81667933        0.21803022        0.04114549
       -2.99385180       40.32956038        0.95620125       38.29480519        0.82034396        0.21757849        0.04063148
       -2.97383178       40.46538412        0.92538190       38.44949016        0.83231048        0.21809184        0.04010974
       -2.95381176       40.65593811        0.89220954       38.65355477        0.85118861        0.21934224        0.03964295
       -2.93379174       40.95179724        0.85924645       38.95606070        0.87593889        0.22123520        0.03931600
       -2.91377172       41.39594560        0.82891351       39.39804193        0.90593822        0.22382807        0.03922387
       -2.89375170       42.01104044        0.80314096       40.00017287        0.94094037        0.22732685        0.03945938
       -2.87373167       42.78993118        0.78313440       40.75366641        0.98096075        0.23206686        0.04010276
       -2.85371165       43.69127219        0.76926961       41.61617418        1.02612869        0.23848490        0.04121481
       -2.83369163       44.64114434        0.76111317       42.51355844        1.07654957        0.24708857        0.04283459
       -2.81367161       45.54046666        0.75755416       43.34730030        1.13220528        0.25842501        0.04498190
       -2.79365159       46.27691923        0.75702361       44.00627741        1.19290576        0.27304851        0.04766394
       -2.77363157       46.73937496        0.75777160       44.38093946        1.25829200        0.29148691        0.05088500
       -2.75361155       46.83258844        0.75816540       44.37766914        1.32788676        0.31420959        0.05465755
       -2.73359153       46.49007905        0.75696745       43.93130878        1.40118771        0.34160247        0.05901264
       -2.71357151       45.68360187        0.75355005       43.01429676        1.47779283        0.37395508        0.06400716
       -2.69355149       44.42811917        0.74800730       41.64139311        1.55753451        0.41145923        0.06972503
       -2.67353147       42.78164259        0.74113631       39.86944900        1.64057862        0.45420919        0.07626946
       -2.65351145       40.83972447        0.73427827       37.79208837        1.72742863        0.50218509        0.08374412
       -2.63349143       38.72485517        0.72903573       35.52961852        1.81877787        0.55519998        0.09222308
       -2.61347141       36.57168308        0.72691027       33.21507475        1.91518449        0.61280100        0.10171257
       -2.59345139       34.50980437        0.72892819       30.97802625        2.01660307        0.67413545        0.11211141
       -2.57343137       32.64667413        0.73533420       28.92846613        2.12187642        0.73781759        0.12317980
       -2.55341135       31.05364693        0.74542761       27.14349825        2.22834329        0.80185011        0.13452768
       -2.53339133       29.75795462        0.75759010       25.65935163        2.33172500        0.86365656        0.14563133
       -2.51337131       28.74244622        0.76951229       24.47038734        2.42640308        0.92026175        0.15588176
