#  aims_uuid : 801F5DB6-E91F-4837-A2B7-C77DE77A6E67                                
# Angular momentum resolved density for species Oas calculated by FHI-aims
# The energy reference for this output is the chemical potential, mu =       -5.999441 eV
#      Energy (eV)         total dos     l= 0              l= 1              l= 2              l= 3              l= 4
       -4.00055939        0.42075472        0.00541383        0.41025357        0.00475957        0.00029601        0.00003174
       -3.98053937        0.37386916        0.00478264        0.36452761        0.00421801        0.00030504        0.00003586
       -3.96051935        0.33185031        0.00423116        0.32355076        0.00371703        0.00031160        0.00003977
       -3.94049933        0.29538877        0.00373688        0.28802443        0.00326902        0.00031518        0.00004326
       -3.92047931        0.26490528        0.00329085        0.25837157        0.00288119        0.00031548        0.00004617
       -3.90045929        0.24046011        0.00289198        0.23465218        0.00255509        0.00031242        0.00004843
       -3.88043927        0.22176333        0.00254266        0.21657701        0.00228740        0.00030620        0.00005004
       -3.86041925        0.20825817        0.00224594        0.20359215        0.00207175        0.00029727        0.00005106
       -3.84039923        0.19923637        0.00200393        0.19499402        0.00190062        0.00028621        0.00005159
       -3.82037921        0.19394728        0.00181682        0.19003802        0.00176695        0.00027371        0.00005177
       -3.80035919        0.19167637        0.00168224        0.18801700        0.00166500        0.00026042        0.00005171
       -3.78033917        0.19178641        0.00159475        0.18830286        0.00159037        0.00024689        0.00005153
       -3.76031915        0.19372891        0.00154586        0.19035868        0.00153951        0.00023354        0.00005132
       -3.74029913        0.19704187        0.00152476        0.19373648        0.00150884        0.00022066        0.00005114
       -3.72027911        0.20134874        0.00152019        0.19807496        0.00149409        0.00020846        0.00005105
       -3.70025909        0.20636640        0.00152306        0.20310506        0.00149005        0.00019710        0.00005112
       -3.68023907        0.21191874        0.00152945        0.20866035        0.00149075        0.00018681        0.00005139
       -3.66021905        0.21794376        0.00154303        0.21468080        0.00149014        0.00017786        0.00005194
       -3.64019903        0.22447853        0.00157613        0.22119603        0.00148293        0.00017063        0.00005281
       -3.62017901        0.23161271        0.00164878        0.22827893        0.00146534        0.00016559        0.00005407
       -3.60015899        0.23941325        0.00178585        0.23597293        0.00143552        0.00016323        0.00005572
       -3.58013897        0.24783778        0.00201243        0.24421013        0.00139346        0.00016400        0.00005775
       -3.56011895        0.25666440        0.00234873        0.25274669        0.00134068        0.00016821        0.00006008
       -3.54009893        0.26546577        0.00280525        0.26114246        0.00127952        0.00017597        0.00006256
       -3.52007891        0.27364455        0.00337947        0.26880028        0.00121260        0.00018718        0.00006502
       -3.50005889        0.28052773        0.00405464        0.27506193        0.00114240        0.00020150        0.00006726
       -3.48003887        0.28549718        0.00480091        0.27933756        0.00107112        0.00021849        0.00006909
       -3.46001885        0.28811983        0.00557857        0.28123253        0.00100071        0.00023764        0.00007038
       -3.43999883        0.28823936        0.00634260        0.28063423        0.00093299        0.00025848        0.00007106
       -3.41997881        0.28600244        0.00704779        0.27773310        0.00086975        0.00028066        0.00007113
       -3.39995879        0.28181284        0.00765341        0.27297213        0.00081268        0.00030396        0.00007066
       -3.37993877        0.27622840        0.00812692        0.26694036        0.00076318        0.00032817        0.00006977
       -3.35991875        0.26983158        0.00844616        0.26024161        0.00072217        0.00035305        0.00006858
       -3.33989873        0.26310968        0.00860023        0.25337413        0.00068993        0.00037819        0.00006719
       -3.31987871        0.25637402        0.00858906        0.24665032        0.00066611        0.00040286        0.00006566
       -3.29985869        0.24973354        0.00842215        0.24017148        0.00064988        0.00042603        0.00006400
       -3.27983867        0.24312078        0.00811676        0.23385522        0.00064033        0.00044633        0.00006214
       -3.25981865        0.23635469        0.00769575        0.22749995        0.00063670        0.00046226        0.00006002
       -3.23979863        0.22921767        0.00718534        0.22086364        0.00063877        0.00047236        0.00005756
       -3.21977861        0.22152507        0.00661285        0.21373516        0.00064693        0.00047544        0.00005467
       -3.19975859        0.21317221        0.00600458        0.20598322        0.00066222        0.00047084        0.00005135
       -3.17973857        0.20415352        0.00538410        0.19757710        0.00068613        0.00045857        0.00004762
       -3.15971855        0.19455687        0.00477117        0.18858234        0.00072040        0.00043936        0.00004359
       -3.13969853        0.18454182        0.00418126        0.17913978        0.00076675        0.00041463        0.00003940
       -3.11967851        0.17431168        0.00362586        0.16943772        0.00082660        0.00038627        0.00003522
       -3.09965849        0.16408714        0.00311319        0.15968541        0.00090082        0.00035646        0.00003126
       -3.07963847        0.15408580        0.00264912        0.15009214        0.00098949        0.00032735        0.00002769
       -3.05961845        0.14450808        0.00223797        0.14085294        0.00109172        0.00030080        0.00002466
       -3.03959843        0.13552778        0.00188281        0.13213904        0.00120547        0.00027822        0.00002225
       -3.01957841        0.12728476        0.00158540        0.12409096        0.00132752        0.00026040        0.00002049
       -2.99955839        0.11987842        0.00134566        0.11681233        0.00145356        0.00024751        0.00001935
       -2.97953837        0.11336193        0.00116116        0.11036440        0.00157847        0.00023916        0.00001875
       -2.95951835        0.10773904        0.00102666        0.10476261        0.00169670        0.00023451        0.00001856
       -2.93949833        0.10296620        0.00093434        0.09997783        0.00180291        0.00023248        0.00001864
       -2.91947831        0.09896236        0.00087435        0.09594464        0.00189262        0.00023190        0.00001885
       -2.89945829        0.09562723        0.00083602        0.09257758        0.00196291        0.00023167        0.00001905
       -2.87943827        0.09286572        0.00080914        0.08979352        0.00201298        0.00023094        0.00001914
       -2.85941825        0.09061303        0.00078526        0.08753504        0.00204451        0.00022917        0.00001906
       -2.83939823        0.08885281        0.00075854        0.08578771        0.00206163        0.00022616        0.00001877
       -2.81937821        0.08762064        0.00072610        0.08458379        0.00207044        0.00022203        0.00001828
       -2.79935819        0.08698904        0.00068771        0.08398847        0.00207803        0.00021721        0.00001763
       -2.77933817        0.08703592        0.00064511        0.08407050        0.00209118        0.00021225        0.00001688
       -2.75931815        0.08780576        0.00060108        0.08486576        0.00211501        0.00020779        0.00001612
       -2.73929813        0.08927753        0.00055855        0.08634729        0.00215189        0.00020439        0.00001541
       -2.71927811        0.09135340        0.00051992        0.08841522        0.00220093        0.00020248        0.00001485
       -2.69925809        0.09387672        0.00048680        0.09091477        0.00225838        0.00020230        0.00001447
       -2.67923807        0.09667702        0.00046003        0.09368010        0.00231870        0.00020388        0.00001432
       -2.65921805        0.09962864        0.00043997        0.09659097        0.00237620        0.00020710        0.00001439
       -2.63919803        0.10270123        0.00042696        0.09962126        0.00242661        0.00021172        0.00001467
       -2.61917801        0.10598039        0.00042161        0.10285795        0.00246830        0.00021743        0.00001510
       -2.59915799        0.10964470        0.00042500        0.10647771        0.00250246        0.00022390        0.00001563
       -2.57913797        0.11390080        0.00043876        0.11068261        0.00253246        0.00023080        0.00001618
       -2.55911795        0.11889478        0.00046489        0.11561310        0.00256232        0.00023778        0.00001668
       -2.53909793        0.12463021        0.00050571        0.12126797        0.00259490        0.00024452        0.00001710
       -2.51907791        0.13092541        0.00056380        0.12746327        0.00263022        0.00025070        0.00001742
       -2.49905789        0.13743293        0.00064221        0.13385237        0.00266463        0.00025606        0.00001766
       -2.47903787        0.14372533        0.00074489        0.14001123        0.00269092        0.00026042        0.00001788
       -2.45901785        0.14942924        0.00087723        0.14557060        0.00269949        0.00026376        0.00001817
       -2.43899783        0.15437167        0.00104668        0.15035980        0.00268035        0.00026620        0.00001864
       -2.41897781        0.15869503        0.00126312        0.15451923        0.00262520        0.00026807        0.00001942
       -2.39895779        0.16290366        0.00153880        0.15854498        0.00252939        0.00026987        0.00002062
       -2.37893777        0.16782174        0.00188776        0.16324648        0.00239292        0.00027225        0.00002233
       -2.35891775        0.17446628        0.00232440        0.16962090        0.00222046        0.00027589        0.00002463
       -2.33889773        0.18386066        0.00286137        0.17866989        0.00202039        0.00028146        0.00002755
       -2.31887771        0.19682882        0.00350692        0.19119822        0.00180311        0.00028949        0.00003109
       -2.29885769        0.21381398        0.00426185        0.20763746        0.00157914        0.00030029        0.00003524
       -2.27883767        0.23475897        0.00511697        0.22793069        0.00135752        0.00031386        0.00003992
       -2.25881765        0.25907094        0.00605128        0.25149990        0.00114480        0.00032991        0.00004504
       -2.23879763        0.28567505        0.00703187        0.27730004        0.00094485        0.00034783        0.00005047
       -2.21877761        0.31314407        0.00801565        0.30394630        0.00075935        0.00036675        0.00005602
       -2.19875759        0.33987703        0.00895313        0.32988794        0.00058883        0.00038564        0.00006149
       -2.17873757        0.36429232        0.00979345        0.35359511        0.00043369        0.00040341        0.00006666
       -2.15871755        0.38500084        0.01049000        0.37372546        0.00029506        0.00041901        0.00007131
       -2.13869753        0.40093310        0.01100543        0.38924578        0.00017513        0.00043153        0.00007522
       -2.11867751        0.41140721        0.01131517        0.39949658        0.00007699        0.00044024        0.00007823
       -2.09865749        0.41614041        0.01140902        0.40420262        0.00000393        0.00044464        0.00008020
       -2.07863747        0.41521812        0.01129090        0.40344322       -0.00004152        0.00044446        0.00008106
       -2.05861745        0.40904018        0.01097719        0.39760100       -0.00005848        0.00043969        0.00008078
       -2.03859743        0.39826071        0.01049430        0.38730483       -0.00004838        0.00043055        0.00007941
       -2.01857741        0.38373041        0.00987604        0.37337492       -0.00001511        0.00041752        0.00007704
       -1.99855739        0.36644078        0.00916103        0.35676927        0.00003535        0.00040131        0.00007382
       -1.97853737        0.34746413        0.00839007        0.33852541        0.00009583        0.00038286        0.00006997
       -1.95851735        0.32788328        0.00760347        0.31969166        0.00015918        0.00036327        0.00006571
       -1.93849733        0.30870999        0.00683828        0.30124722        0.00021946        0.00034373        0.00006130
       -1.91847731        0.29079889        0.00612536        0.28401803        0.00027309        0.00032542        0.00005700
       -1.89845729        0.27477004        0.00548702        0.26860136        0.00031931        0.00030935        0.00005301
       -1.87843727        0.26095589        0.00493538        0.25531451        0.00036027        0.00029626        0.00004948
       -1.85841725        0.24938591        0.00447213        0.24418055        0.00040025        0.00028649        0.00004649
       -1.83839723        0.23981557        0.00408969        0.23495736        0.00044453        0.00027996        0.00004404
       -1.81837721        0.23179719        0.00377382        0.22720740        0.00049776        0.00027615        0.00004205
       -1.79835719        0.22478107        0.00350707        0.22039682        0.00056256        0.00027422        0.00004040
       -1.77833717        0.21822839        0.00327233        0.21400569        0.00063835        0.00027308        0.00003893
       -1.75831715        0.21171414        0.00305585        0.20762823        0.00072093        0.00027165        0.00003750
       -1.73829713        0.20500049        0.00284905        0.20104365        0.00080287        0.00026894        0.00003599
       -1.71827711        0.19806686        0.00264888        0.19424471        0.00087471        0.00026425        0.00003431
       -1.69825709        0.19109295        0.00245681        0.18741988        0.00092655        0.00025726        0.00003245
       -1.67823707        0.18440079        0.00227695        0.18089559        0.00094984        0.00024799        0.00003043
       -1.65821705        0.17837065        0.00211388        0.17505280        0.00093887        0.00023679        0.00002830
       -1.63819703        0.17335005        0.00197082        0.17023727        0.00089160        0.00022423        0.00002613
       -1.61817701        0.16957542        0.00184854        0.16668210        0.00080980        0.00021100        0.00002399
       -1.59815699        0.16712114        0.00174520        0.16445774        0.00069853        0.00019772        0.00002194
       -1.57813697        0.16588413        0.00165692        0.16345697        0.00056523        0.00018495        0.00002005
       -1.55811695        0.16560387        0.00157888        0.16341500        0.00041861        0.00017305        0.00001833
       -1.53809693        0.16591093        0.00150633        0.16395791        0.00026763        0.00016226        0.00001682
       -1.51807691        0.16639279        0.00143543        0.16466840        0.00012079        0.00015267        0.00001550
       -1.49805689        0.16666381        0.00136363        0.16515589       -0.00001440        0.00014430        0.00001439
       -1.47803687        0.16642710        0.00128961        0.16511869       -0.00013182        0.00013715        0.00001346
       -1.45801685        0.16551845        0.00121292        0.16438855       -0.00022692        0.00013118        0.00001272
       -1.43799683        0.16392568        0.00113363        0.16295058       -0.00029705        0.00012638        0.00001212
       -1.41797681        0.16178040        0.00105206        0.16093550       -0.00034155        0.00012273        0.00001166
       -1.39795679        0.15932324        0.00096871        0.15858491       -0.00036189        0.00012022        0.00001129
       -1.37793677        0.15684762        0.00088444        0.15619478       -0.00036143        0.00011881        0.00001101
       -1.35791675        0.15463166        0.00080066        0.15404665       -0.00034494        0.00011849        0.00001079
       -1.33789673        0.15287166        0.00071948        0.15234012       -0.00031778        0.00011921        0.00001064
       -1.31787671        0.15163186        0.00064374        0.15114156       -0.00028496        0.00012096        0.00001056
       -1.29785669        0.15082366        0.00057684        0.15036260       -0.00025008        0.00012372        0.00001058
       -1.27783667        0.15022188        0.00052249        0.14977568       -0.00021456        0.00012755        0.00001073
       -1.25781665        0.14951644        0.00048438        0.14906571       -0.00017719        0.00013252        0.00001102
       -1.23779663        0.14838870        0.00046594        0.14790664       -0.00013420        0.00013883        0.00001150
       -1.21777661        0.14659388        0.00047023        0.14604452       -0.00007980        0.00014675        0.00001217
       -1.19775659        0.14402857        0.00049990        0.14336590       -0.00000700        0.00015669        0.00001306
       -1.17773657        0.14076602        0.00055718        0.13993415        0.00009132        0.00016917        0.00001420
       -1.15771655        0.13705094        0.00064396        0.13598519        0.00022142        0.00018478        0.00001560
       -1.13769653        0.13325700        0.00076172        0.13188582        0.00038798        0.00020420        0.00001729
       -1.11767651        0.12982037        0.00091146        0.12806781        0.00059370        0.00022809        0.00001930
       -1.09765649        0.12716770        0.00109350        0.12495616        0.00083930        0.00025708        0.00002166
       -1.07763647        0.12565576        0.00130713        0.12290873        0.00112379        0.00029170        0.00002440
       -1.05761645        0.12553282        0.00155028        0.12217774        0.00144492        0.00033235        0.00002753
       -1.03759643        0.12692328        0.00181893        0.12289462        0.00179947        0.00037921        0.00003104
       -1.01757641        0.12982906        0.00210670        0.12507187        0.00218340        0.00043219        0.00003490
       -0.99755639        0.13413858        0.00240441        0.12861276        0.00259159        0.00049078        0.00003904
       -0.97753637        0.13963611        0.00270013        0.13332128        0.00301738        0.00055397        0.00004335
       -0.95751635        0.14600963        0.00297961        0.13891020        0.00345202        0.00062012        0.00004768
       -0.93749633        0.15286121        0.00322747        0.14501051        0.00388438        0.00068698        0.00005186
